1.620085343070652e-05
3.7656037703804346e-05
2.627165421195652e-06
-9.151292883831521e-05
-0.000201416015625
-0.0002745387865149456
-0.0002933668053668478
-0.00026928445567255433
-0.00021411398182744564
-0.00012916896654211957
-2.276876698369565e-05
7.531207540760869e-05
0.00013967762822690217
0.0001768958050271739
0.0002176168690557065
0.00027016017747961957
0.00030694049337635866
0.00030081044072690217
0.0002579000721807065
0.0001970374065896739
0.00012128747027853261
2.933668053668478e-05
-5.648405655570652e-05
-0.00010158372961956521
-9.370223335597826e-05
-5.7797639266304343e-05
-2.933668053668478e-05
-1.4449409816576086e-05
1.313582710597826e-06
1.7952297044836957e-05
1.2697966202445651e-05
-2.1455184273097826e-05
-6.04248046875e-05
-7.706351902173912e-05
-7.57499363111413e-05
-7.57499363111413e-05
-7.706351902173912e-05
-5.648405655570652e-05
0.0
7.180918817934783e-05
0.00011428169582201086
9.195078974184782e-05
1.313582710597826e-06
-0.00012785538383152173
-0.0002329420006793478
-0.00024126135784646738
-0.00013092041015625
3.065026324728261e-05
0.00012785538383152173
9.501581606657609e-05
-2.4958071501358695e-05
-0.00012172533118206522
-0.00011822244395380434
-3.634245499320652e-05
3.4153150475543474e-05
3.5466733186141305e-05
-1.0070800781249999e-05
-4.2034646739130435e-05
-2.8460958729619564e-05
1.357368800951087e-05
5.7797639266304343e-05
8.888576341711956e-05
9.370223335597826e-05
6.56791355298913e-05
3.065026324728261e-05
4.597539487092391e-05
0.00014230479364809781
0.0002732252038043478
0.0003542294709578804
0.0003463479746942935
0.0002824202827785326
0.00020535676375679348
0.00010990308678668478
-3.590459408967391e-05
-0.00022549836531929348
-0.0003818147078804348
-0.0004172814410665761
-0.00030912979789402174
-0.00010946522588315217
0.00010202159052309782
0.0002543971849524456
0.00029161536175271736
0.00020448104194972826
5.5170473845108694e-05
-5.56083347486413e-05
-7.531207540760869e-05
-3.590459408967391e-05
-9.195078974184782e-06
-3.721817680027174e-05
-0.00010902736497961956
-0.00019484810207201085
-0.0002824202827785326
-0.00037043032438858694
-0.000435233738111413
-0.0004247250764266304
-0.00030518904976222823
-0.0001059623386548913
8.844790251358695e-05
0.00019791312839673912
0.00019878885020380434
0.00012916896654211957
5.166758661684782e-05
5.6921917459239125e-06
-4.816469938858695e-06
8.757218070652174e-07
1.1822244395380435e-05
2.4958071501358695e-05
4.115892493206522e-05
5.429475203804348e-05
5.7359778362771735e-05
5.1229725713315214e-05
4.728897758152174e-05
5.7359778362771735e-05
8.319357167119565e-05
0.00012041174847146739
0.00015587848165760868
0.0001563163425611413
7.925282353940217e-05
-7.837710173233695e-05
-0.00024870499320652173
-0.0003314607039741848
-0.00028066883916440217
-0.00013923976732336957
1.0946522588315217e-05
0.0001164710003396739
0.00016726286514945652
0.0001755822223165761
0.0001567542034646739
0.00013092041015625
0.00011690886124320651
0.00011778458305027173
0.0001112166694972826
7.706351902173912e-05
2.8898819633152172e-05
-1.7514436141304347e-06
-6.130052649456522e-06
-1.7514436141304347e-06
-7.005774456521739e-06
-2.276876698369565e-05
-4.509967306385869e-05
-8.625859799592391e-05
-0.0001615706734035326
-0.00025877579398777173
-0.0003262063731317935
-0.00030124830163043477
-0.00017120361328124998
3.5028872282608694e-06
0.00013529901919157608
0.00017426863960597825
0.00013573688009510868
7.356063179347826e-05
3.634245499320652e-05
4.509967306385869e-05
8.976148522418478e-05
0.0001366126019021739
0.00015456489894701087
0.00013792618461277173
0.00010640019955842391
7.750137992527173e-05
5.648405655570652e-05
4.4661812160326084e-05
4.509967306385869e-05
4.904042119565217e-05
3.984534222146739e-05
3.5028872282608694e-06
-6.743057914402173e-05
-0.00017514436141304347
-0.00030650263247282607
-0.0004282279636548913
-0.0004912799337635869
-0.000455375339673913
-0.00031657343325407607
-0.00012391463569972824
5.035400390625e-05
0.00016025709069293476
0.00020579462466032607
0.00020929751188858694
0.00019309665845788042
0.0001817122749660326
0.00019353451936141304
0.0002176168690557065
0.0002219954780910326
0.00019265879755434783
0.00014843484629755433
0.00011034094769021739
6.480341372282608e-05
-2.4958071501358695e-05
-0.00017470650050951088
-0.00034459653108016305
-0.00045668892238451085
-0.00045099673063858696
-0.0003257685122282609
-0.00013004468834918478
7.356063179347826e-05
0.00024257494055706521
0.00035729449728260867
0.0004185950237771739
0.0004339201554008152
0.0004072106402853261
0.0003257685122282609
0.00017952297044836955
-7.443635360054348e-06
-0.0001707657523777174
-0.00024870499320652173
-0.00024038563603940216
-0.00019791312839673912
-0.00017295505689538042
-0.0001764579441236413
-0.00018959377122961955
-0.00018390157948369563
-0.00014449409816576087
-7.969068444293477e-05
-1.620085343070652e-05
2.5395932404891303e-05
5.341903023097826e-05
8.976148522418478e-05
0.00012829324473505435
0.00013048254925271738
7.049560546875e-05
-2.627165421195652e-05
-0.00010289731233016304
-0.0001256660793138587
-0.00011165453040081521
-9.895656419836956e-05
-0.00010858950407608696
-0.00013486115828804346
-0.00016463569972826087
-0.00018477730129076085
-0.00017733366593070652
-0.0001256660793138587
-3.196384595788043e-05
8.056640624999999e-05
0.0001860908840013587
0.00026096509850543476
0.0002824202827785326
0.00024082349694293478
0.00015806778617527174
8.187998896059783e-05
5.210544752038043e-05
7.399849269701087e-05
0.00011690886124320651
0.00013354757557744565
9.10750679347826e-05
-3.940748131793478e-06
-0.00011077880859375
-0.00017908510954483696
-0.0001909073539402174
-0.00016332211701766304
-0.00012128747027853261
-6.743057914402173e-05
5.6921917459239125e-06
9.063720703124999e-05
0.00015412703804347825
0.00017120361328124998
0.00014493195906929346
9.764298148777174e-05
4.8164699388586956e-05
8.757218070652174e-07
-4.509967306385869e-05
-8.757218070652174e-05
-0.00011822244395380434
-0.00012829324473505435
-0.00011340597401494565
-7.750137992527173e-05
-2.8898819633152172e-05
1.751443614130435e-05
4.115892493206522e-05
2.977454144021739e-05
4.378609035326087e-07
-8.319357167119564e-06
2.1455184273097826e-05
6.173838739809782e-05
6.524127462635869e-05
2.320662788722826e-05
-1.2697966202445651e-05
1.5762992527173912e-05
9.808084239130435e-05
0.00014493195906929346
7.399849269701087e-05
-0.00010683806046195652
-0.00031000551970108693
-0.00043129298997961955
-0.00041290283203125
-0.0002670951511548913
-7.137132727581522e-05
7.443635360054348e-05
0.00011165453040081521
6.524127462635869e-05
1.5762992527173912e-05
2.7585236922554347e-05
9.151292883831521e-05
0.00014712126358695652
0.00015938136888586955
0.00015894350798233695
0.0001860908840013587
0.0002268119480298913
0.00023119055706521737
0.00018127441406249998
0.00010946522588315217
4.728897758152174e-05
-1.7514436141304347e-06
-4.4223951256793476e-05
-6.918202275815218e-05
-5.5170473845108694e-05
0.0
6.524127462635869e-05
9.151292883831521e-05
4.4661812160326084e-05
-5.56083347486413e-05
-0.00014230479364809781
-0.0001414290718410326
-2.977454144021739e-05
0.0001409912109375
0.00027541450832201087
0.00029686969259510866
0.00018390157948369563
-3.678031589673913e-05
-0.00030650263247282607
-0.0005228059188179347
-0.0005692191745923913
-0.0004093999448029891
-0.00014405623726222825
6.61169964334239e-05
0.0001414290718410326
0.00012347677479619565
8.976148522418478e-05
6.56791355298913e-05
2.8460958729619564e-05
-3.50288722826087e-05
-9.720512058423913e-05
-0.00012260105298913043
-0.0001112166694972826
-9.195078974184782e-05
-8.363143257472826e-05
-7.793924082880434e-05
-6.436555281929347e-05
-4.509967306385869e-05
-2.977454144021739e-05
-2.4082349694293478e-05
-2.4520210597826086e-05
-1.926587975543478e-05
6.130052649456522e-06
5.1229725713315214e-05
9.764298148777174e-05
0.00012960682744565216
0.0001462455417798913
0.00014536981997282609
0.00011428169582201086
5.5170473845108694e-05
5.254330842391304e-06
2.1893045176630435e-06
3.8093898607336954e-05
7.093346637228261e-05
7.180918817934783e-05
4.991614300271739e-05
2.714737601902174e-05
5.6921917459239125e-06
-3.3715289572010865e-05
-9.851870329483695e-05
-0.00016025709069293476
-0.0001716414741847826
-0.00010990308678668478
5.6921917459239125e-06
0.00013048254925271738
0.00021411398182744564
0.00021893045176630434
0.00014405623726222825
2.364448879076087e-05
-9.808084239130435e-05
-0.00019528596297554347
-0.00026052723760190216
-0.0002898639181385869
-0.0002802309782608696
-0.00023600702700407608
-0.00016813858695652174
-8.757218070652174e-05
-3.5028872282608694e-06
7.00577445652174e-05
0.00011428169582201086
0.00010858950407608696
5.0791864809782605e-05
-3.283956776494565e-05
-0.00010508661684782608
-0.00014055335003396738
-0.00013880190641983695
-0.00010027014690896739
-1.620085343070652e-05
0.00011778458305027173
0.00027366306470788044
0.00039013406504755435
0.0004093999448029891
0.0003187627377717391
0.00015806778617527174
-8.757218070652174e-06
-0.00013310971467391303
-0.00019528596297554347
-0.00019966457201086956
-0.0001615706734035326
-0.00010289731233016304
-4.55375339673913e-05
-2.627165421195652e-06
2.1455184273097826e-05
2.8898819633152172e-05
2.4082349694293478e-05
2.320662788722826e-05
4.641325577445652e-05
9.676725968070652e-05
0.0001554406207540761
0.00019659954568614129
0.00020491890285326085
0.00017952297044836955
0.0001221631920855978
3.50288722826087e-05
-7.224704908288043e-05
-0.0001808365531589674
-0.0002723494819972826
-0.0003375907566236413
-0.0003673652980638587
-0.00033715289572010867
-0.00022506050441576086
-4.772683848505435e-05
0.00012654180112092392
0.00022724980893342391
0.0002325041397758152
0.00016901430876358696
6.961988366168479e-05
-4.55375339673913e-05
-0.00014887270720108695
-0.00019659954568614129
-0.0001615706734035326
-6.436555281929347e-05
3.896962041440217e-05
0.0001007080078125
0.0001112166694972826
8.801004161005434e-05
5.298116932744565e-05
1.4011548913043478e-05
-2.364448879076087e-05
-5.429475203804348e-05
-7.224704908288043e-05
-7.881496263586956e-05
-7.049560546875e-05
-3.853175951086956e-05
2.0141601562499998e-05
8.976148522418478e-05
0.00013967762822690217
0.00014318051545516303
9.808084239130435e-05
3.021240234375e-05
-2.1017323369565217e-05
-2.714737601902174e-05
1.4887270720108696e-05
8.363143257472826e-05
0.00014712126358695652
0.00018521516219429347
0.0001922209366508152
0.00016989003057065217
0.00012785538383152173
8.976148522418478e-05
7.487421450407608e-05
6.480341372282608e-05
1.0946522588315217e-05
-9.895656419836956e-05
-0.0001961616847826087
-0.00018521516219429347
-5.604619565217391e-05
9.063720703124999e-05
0.00014274265455163044
8.187998896059783e-05
-2.5395932404891303e-05
-0.00012041174847146739
-0.00019353451936141304
-0.00024958071501358697
-0.0002666572902513587
-0.00021104895550271737
-7.925282353940217e-05
9.019934612771738e-05
0.00023513130519701086
0.00030081044072690217
0.00026403012483016303
0.00014974842900815217
9.63293987771739e-06
-0.000120849609375
-0.00023950991423233694
-0.00033978006114130434
-0.00038312829059103257
-0.00033496359120244564
-0.00021411398182744564
-9.019934612771738e-05
-2.1893045176630434e-05
-1.8390157948369565e-05
-5.385689113451087e-05
-0.00010508661684782608
-0.00015325131623641303
-0.0001668250042459239
-0.00011471955672554347
-6.130052649456522e-06
0.00010333517323369564
0.00016069495159646739
0.00015237559442934782
0.00010727592136548913
6.743057914402173e-05
6.04248046875e-05
9.10750679347826e-05
0.00015062415081521738
0.00022418478260869564
0.00028460958729619563
0.0002832960045855978
0.00017820938773777174
-1.5762992527173912e-05
-0.00021586542544157607
-0.0003227034859035326
-0.0002981832753057065
-0.00018346371858016304
-5.035400390625e-05
5.5170473845108694e-05
0.0001256660793138587
0.00016989003057065217
0.00019397238026494564
0.00020448104194972826
0.0002009781547214674
0.00017383077870244563
0.00010946522588315217
1.5762992527173912e-05
-7.443635360054348e-05
-0.0001221631920855978
-0.00010552447775135868
-2.4082349694293478e-05
9.58915378736413e-05
0.00020316745923913042
0.00023513130519701086
0.00015981922978940217
1.313582710597826e-05
-0.00012479035750679349
-0.00019397238026494564
-0.0001961616847826087
-0.0001716414741847826
-0.0001466834026834239
-0.00012347677479619565
-0.00010333517323369564
-9.720512058423913e-05
-0.00010552447775135868
-0.00010727592136548913
-7.312277088994565e-05
9.63293987771739e-06
0.00012697966202445651
0.0002325041397758152
0.00027410092561141303
0.00023425558338994564
0.00015106201171875
8.53828761888587e-05
6.786844004755434e-05
7.57499363111413e-05
6.436555281929347e-05
5.6921917459239125e-06
-0.00010289731233016304
-0.00024958071501358697
-0.00040633491847826084
-0.0005249952233355978
-0.00055389404296875
-0.00047726838485054345
-0.00032970926036005434
-0.0001716414741847826
-5.298116932744565e-05
3.940748131793478e-06
4.378609035326087e-06
-1.5325131623641304e-05
7.881496263586956e-06
0.00011866030485733696
0.00028855033542798914
0.00042603865913722825
0.00044924528702445653
0.00035028872282608694
0.0001869666058084239
3.065026324728261e-05
-8.450715438179348e-05
-0.00016901430876358696
-0.0002325041397758152
-0.00023732060971467392
-0.00012522821841032608
0.0001011458687160326
0.00034591011379076083
0.0004847120202105978
0.00046457041864809783
0.00033583931300951083
0.0001961616847826087
0.00010858950407608696
7.00577445652174e-05
4.55375339673913e-05
1.8390157948369565e-05
-7.443635360054348e-06
-3.1088124150815216e-05
-5.911122197690217e-05
-9.326437245244564e-05
-0.00011953602666440217
-0.00011822244395380434
-8.187998896059783e-05
-2.8460958729619564e-05
1.0946522588315217e-05
1.357368800951087e-05
-1.8828018851902173e-05
-6.436555281929347e-05
-0.00010027014690896739
-0.00012260105298913043
-0.00013792618461277173
-0.00014580768087635868
-0.00014230479364809781
-0.00013442329738451087
-0.00013442329738451087
-0.0001409912109375
-0.0001414290718410326
-0.000120849609375
-6.961988366168479e-05
1.663871433423913e-05
0.0001322339928668478
0.00024476424507472827
0.0002986211362092391
0.00024476424507472827
8.669645889945652e-05
-0.00010990308678668478
-0.00025527290675951087
-0.00028898819633152174
-0.00020535676375679348
-4.4223951256793476e-05
0.00012741752292798914
0.0002443263841711956
0.0002666572902513587
0.0002018538765285326
9.676725968070652e-05
6.56791355298913e-06
-3.678031589673913e-05
-4.0283203124999995e-05
-3.5466733186141305e-05
-5.341903023097826e-05
-9.370223335597826e-05
-0.00011734672214673912
-7.881496263586956e-05
1.926587975543478e-05
0.00012741752292798914
0.0002066703464673913
0.0002543971849524456
0.00026315440302309784
0.00018871804942255434
5.254330842391304e-06
-0.00021586542544157607
-0.0003332121475883152
-0.00026315440302309784
-6.61169964334239e-05
0.00011034094769021739
0.00016945216966711955
0.00012435249660326086
4.4661812160326084e-05
-2.4082349694293478e-05
-8.144212805706522e-05
-0.00013354757557744565
-0.00016244639521059782
-0.0001313582710597826
-2.1455184273097826e-05
0.00013004468834918478
0.0002377584706182065
0.00023425558338994564
0.00014536981997282609
6.480341372282608e-05
4.728897758152174e-05
5.035400390625e-05
1.0946522588315217e-05
-5.166758661684782e-05
-6.830630095108695e-05
-4.0283203124999995e-05
-5.823550016983695e-05
-0.00019484810207201085
-0.0004023941703464674
-0.0005328767195991848
-0.00043698518172554345
-8.056640624999999e-05
0.0003997670049252717
0.0007767652428668478
0.0008958634086277174
0.0007715109120244565
0.00051361083984375
0.00018828018851902174
-0.0001974752674932065
-0.0005928636633831521
-0.0008455094047214673
-0.0008183620287024456
-0.0005473261294157609
-0.00022330906080163043
-7.881496263586956e-06
7.531207540760869e-05
8.450715438179348e-05
5.56083347486413e-05
-4.816469938858695e-06
-8.363143257472826e-05
-0.00016989003057065217
-0.0002832960045855978
-0.0004242872155230978
-0.0005070429262907609
-0.0004181571628736413
-0.00015281345533288044
0.00016244639521059782
0.0003980155613111413
0.000525870945142663
0.0005858578889266304
0.0006077509341032609
0.0005928636633831521
0.0005477639903192934
0.0005044157608695652
0.0004890906292459239
0.0004790198284646739
0.0004019563094429348
0.00021104895550271737
-5.254330842391304e-05
-0.0002872367527173913
-0.00042122218919836955
-0.0004707004712975543
-0.0005048536217730978
-0.0005679055918817934
-0.00063446044921875
-0.0006427798063858695
-0.0005613376783288043
-0.00042560079823369566
-0.0003025618843410326
-0.00022506050441576086
-0.00016813858695652174
-8.801004161005434e-05
3.3715289572010865e-05
0.00018258799677309782
0.0003279578167459239
0.00043216871178668474
0.00045668892238451085
0.0003783118206521739
0.00021367612092391305
2.320662788722826e-05
-0.00012260105298913043
-0.00019353451936141304
-0.00021323826002038042
-0.00021980617357336956
-0.00021586542544157607
-0.00017777152683423912
-0.00010333517323369564
-2.364448879076087e-05
2.5395932404891303e-05
3.634245499320652e-05
2.2330906080163042e-05
1.7514436141304347e-06
-1.0946522588315217e-05
-1.0508661684782609e-05
4.378609035326087e-07
2.0141601562499998e-05
5.5170473845108694e-05
0.00012260105298913043
0.0002263740871263587
0.00033452573029891304
0.00039057192595108695
0.00035028872282608694
0.00021980617357336956
5.604619565217391e-05
-5.7359778362771735e-05
-6.392769191576087e-05
3.065026324728261e-05
0.00015587848165760868
0.00022549836531929348
0.00020010243291440218
0.00010640019955842391
4.816469938858695e-06
-6.830630095108695e-05
-0.0001164710003396739
-0.0001462455417798913
-0.0001409912109375
-8.625859799592391e-05
-8.319357167119564e-06
3.459101137907609e-05
8.319357167119564e-06
-7.224704908288043e-05
-0.00016332211701766304
-0.00022418478260869564
-0.00023600702700407608
-0.00019878885020380434
-0.00012741752292798914
-4.334822944972826e-05
2.714737601902174e-05
6.961988366168479e-05
8.58207370923913e-05
9.019934612771738e-05
9.151292883831521e-05
9.238865064538043e-05
0.00010202159052309782
0.00012741752292798914
0.00016069495159646739
0.00018127441406249998
0.00017470650050951088
0.00014536981997282609
0.0001112166694972826
8.319357167119565e-05
4.685111667798913e-05
-2.4958071501358695e-05
-0.00013442329738451087
-0.0002368827488111413
-0.00027847953464673914
-0.00024126135784646738
-0.00015368917713994565
-6.348983101222826e-05
-9.63293987771739e-06
4.378609035326087e-07
-4.378609035326087e-06
5.254330842391304e-06
3.3715289572010865e-05
5.911122197690217e-05
7.618779721467391e-05
0.00010815164317255435
0.00016857644786005433
0.00022943911345108694
0.00024345066236413043
0.00019966457201086956
0.00012260105298913043
2.057946246603261e-05
-0.00012522821841032608
-0.00030081044072690217
-0.000415092136548913
-0.0003774360988451087
-0.00020316745923913042
-6.56791355298913e-06
0.00011077880859375
0.00013967762822690217
0.00013267185377038043
0.0001322339928668478
0.00014799698539402173
0.00017996083135190217
0.00023425558338994564
0.00030475118885869563
0.00036254882812499997
0.00037568465523097824
0.0003432829483695652
0.00028636103091032606
0.0002123625382133152
9.808084239130435e-05
-7.268490998641304e-05
-0.0002670951511548913
-0.0004137785538383152
-0.00046982474949048913
-0.0004558132005774456
-0.00042166005010190214
-0.0003835661514945652
-0.00031920059867527174
-0.0002171790081521739
-0.00011296811311141304
-5.867336107336956e-05
-6.261410920516304e-05
-8.187998896059783e-05
-7.706351902173912e-05
-4.685111667798913e-05
-7.443635360054348e-06
3.065026324728261e-05
5.954908288043478e-05
6.524127462635869e-05
4.947828209918478e-05
3.590459408967391e-05
3.8093898607336954e-05
3.7656037703804346e-05
4.378609035326087e-06
-7.049560546875e-05
-0.00016332211701766304
-0.00024082349694293478
-0.00027891739555027174
-0.00026534370754076087
-0.0001917830757472826
-6.918202275815218e-05
4.947828209918478e-05
8.976148522418478e-05
1.4449409816576086e-05
-0.00012479035750679349
-0.00022462264351222826
-0.00020929751188858694
-8.58207370923913e-05
5.911122197690217e-05
0.0001221631920855978
5.692191745923913e-05
-8.713431980298913e-05
-0.00019309665845788042
-0.00015850564707880433
2.8898819633152172e-05
0.0002776038128396739
0.00045712678328804345
0.0004987235691236413
0.0004382987644361413
0.0003629866890285326
0.0003332121475883152
0.00034591011379076083
0.0003511644446331522
0.00029205322265625
0.00015193773352581522
-2.1017323369565217e-05
-0.0001409912109375
-0.00015193773352581522
-7.399849269701087e-05
1.926587975543478e-05
6.305197010869565e-05
4.2034646739130435e-05
-1.4011548913043478e-05
-6.436555281929347e-05
-7.969068444293477e-05
-5.7359778362771735e-05
-2.0141601562499998e-05
3.065026324728261e-06
3.065026324728261e-06
-6.130052649456522e-06
-9.195078974184782e-06
-5.254330842391304e-06
-3.065026324728261e-06
-3.940748131793478e-06
1.7514436141304347e-06
2.1455184273097826e-05
4.378609035326087e-05
4.8164699388586956e-05
2.627165421195652e-05
-2.1893045176630435e-06
-5.254330842391304e-06
1.7952297044836957e-05
2.1893045176630434e-05
-3.853175951086956e-05
-0.00013967762822690217
-0.00019441024116847826
-0.00013967762822690217
4.378609035326087e-06
0.00016200853430706522
0.00026403012483016303
0.0002797931173573369
0.00020885965098505434
6.655485733695651e-05
-0.00011953602666440217
-0.0003130705460258152
-0.0004628189750339674
-0.0005188651706861413
-0.00045712678328804345
-0.00029424252717391304
-8.713431980298913e-05
8.713431980298913e-05
0.00017952297044836955
0.00019966457201086956
0.00019353451936141304
0.00018127441406249998
0.00014931056810461955
0.00010202159052309782
8.450715438179348e-05
0.00012741752292798914
0.00019878885020380434
0.00023819633152173913
0.00021367612092391305
0.00012916896654211957
2.1893045176630435e-06
-0.00014230479364809781
-0.00026140295940896735
-0.0003078162151834239
-0.0002666572902513587
-0.00018258799677309782
-0.00012697966202445651
-0.0001366126019021739
-0.0001817122749660326
-0.00019922671110733693
-0.00015719206436820652
-7.837710173233695e-05
-1.2697966202445651e-05
1.313582710597826e-06
-3.590459408967391e-05
-8.625859799592391e-05
-9.851870329483695e-05
-5.298116932744565e-05
2.5395932404891303e-05
0.00010289731233016304
0.0001663871433423913
0.0002224333389945652
0.00026840873386548914
0.0002771659519361413
0.00022330906080163043
0.00011734672214673912
1.7514436141304347e-06
-8.144212805706522e-05
-0.00011953602666440217
-0.00012391463569972824
-0.00010771378226902174
-8.100426715353261e-05
-5.166758661684782e-05
-3.240170686141304e-05
-2.670951511548913e-05
-1.620085343070652e-05
2.1893045176630434e-05
8.53828761888587e-05
0.0001366126019021739
0.0001401154891304348
9.720512058423913e-05
4.4223951256793476e-05
2.627165421195652e-05
6.217624830163043e-05
0.0001221631920855978
0.00013792618461277173
6.173838739809782e-05
-7.925282353940217e-05
-0.00020272959833559783
-0.00023907205332880435
-0.00017908510954483696
-6.524127462635869e-05
4.4661812160326084e-05
0.00010858950407608696
0.0001112166694972826
6.655485733695651e-05
1.313582710597826e-05
-1.313582710597826e-05
-7.005774456521739e-06
1.0070800781249999e-05
2.057946246603261e-05
3.3715289572010865e-05
6.348983101222826e-05
9.939442510190217e-05
0.00011866030485733696
0.00011734672214673912
0.00011428169582201086
0.00012303891389266303
0.00013529901919157608
0.00012960682744565216
9.10750679347826e-05
1.970374065896739e-05
-6.086266559103261e-05
-0.00011690886124320651
-0.00013442329738451087
-0.00013354757557744565
-0.0001409912109375
-0.00015500275985054347
-0.00015062415081521738
-0.0001160331394361413
-7.180918817934783e-05
-4.247250764266304e-05
-2.4520210597826086e-05
5.254330842391304e-06
5.1229725713315214e-05
7.706351902173912e-05
4.4223951256793476e-05
-4.378609035326087e-05
-0.00014186693274456522
-0.00019528596297554347
-0.00017820938773777174
-0.00011077880859375
-4.247250764266304e-05
-7.005774456521739e-06
3.5028872282608694e-06
8.757218070652174e-06
4.378609035326087e-07
-4.728897758152174e-05
-0.00012916896654211957
-0.00018127441406249998
-0.00011909816576086957
7.969068444293477e-05
0.00032708209493885866
0.0004785819675611413
0.0004597539487092391
0.0003174491550611413
0.0001462455417798913
4.378609035326087e-07
-0.00011077880859375
-0.0001817122749660326
-0.0001922209366508152
-0.0001409912109375
-5.867336107336956e-05
1.357368800951087e-05
6.173838739809782e-05
9.370223335597826e-05
0.00011384383491847825
0.00010683806046195652
5.911122197690217e-05
-1.0070800781249999e-05
-5.954908288043478e-05
-6.918202275815218e-05
-6.04248046875e-05
-5.954908288043478e-05
-5.4732612941576086e-05
-9.195078974184782e-06
8.976148522418478e-05
0.0002123625382133152
0.00031920059867527174
0.00038619331691576084
0.0003844418733016304
0.00026928445567255433
2.8023097826086955e-05
-0.00027059803838315217
-0.0004939070991847826
-0.0005372553286345108
-0.00041158924932065214
-0.00022812553074048913
-0.0001007080078125
-6.348983101222826e-05
-8.275571076766304e-05
-0.00011515741762907608
-0.00012741752292798914
-9.10750679347826e-05
3.065026324728261e-06
0.00012479035750679349
0.0002171790081521739
0.00024388852326766303
0.00021367612092391305
0.00017032789147418477
0.00016025709069293476
0.00019265879755434783
0.00023031483525815216
0.0002219954780910326
0.00014887270720108695
2.276876698369565e-05
-0.0001366126019021739
-0.0003034376061480978
-0.0004273522418478261
-0.0004488074261209239
-0.0003489751401154891
-0.0001768958050271739
-1.4011548913043478e-05
8.888576341711956e-05
0.0001361747409986413
0.00015193773352581522
0.00014712126358695652
0.00012435249660326086
9.983228600543478e-05
9.370223335597826e-05
9.895656419836956e-05
8.713431980298913e-05
4.378609035326087e-05
-1.4449409816576086e-05
-6.961988366168479e-05
-0.00012041174847146739
-0.00016726286514945652
-0.00018521516219429347
-0.0001501862899116848
-7.881496263586956e-05
-2.1893045176630434e-05
-8.757218070652174e-06
-1.751443614130435e-05
-7.005774456521739e-06
2.8460958729619564e-05
5.341903023097826e-05
3.678031589673913e-05
-1.7514436141304347e-06
-1.0946522588315217e-05
3.065026324728261e-05
8.450715438179348e-05
9.764298148777174e-05
6.261410920516304e-05
2.057946246603261e-05
1.2697966202445651e-05
3.940748131793478e-05
7.137132727581522e-05
8.625859799592391e-05
8.58207370923913e-05
7.706351902173912e-05
5.692191745923913e-05
2.1017323369565217e-05
-1.5762992527173912e-05
-3.196384595788043e-05
-2.364448879076087e-05
-7.881496263586956e-06
4.378609035326087e-07
-3.065026324728261e-06
-2.1893045176630434e-05
-4.641325577445652e-05
-5.604619565217391e-05
-3.590459408967391e-05
4.378609035326087e-06
4.597539487092391e-05
7.750137992527173e-05
9.676725968070652e-05
9.939442510190217e-05
7.969068444293477e-05
4.728897758152174e-05
2.364448879076087e-05
2.4082349694293478e-05
4.0283203124999995e-05
4.4223951256793476e-05
1.751443614130435e-05
-3.940748131793478e-05
-0.00011559527853260869
-0.0001917830757472826
-0.00023469344429347824
-0.00021367612092391305
-0.00013529901919157608
-4.728897758152174e-05
3.5028872282608694e-06
1.357368800951087e-05
5.254330842391304e-06
-3.940748131793478e-06
-1.1384383491847825e-05
-1.4449409816576086e-05
-1.0070800781249999e-05
-1.313582710597826e-06
-1.313582710597826e-06
-2.627165421195652e-05
-7.57499363111413e-05
-0.00011778458305027173
-0.00010027014690896739
9.195078974184782e-06
0.00018521516219429347
0.00034985086192255435
0.00042166005010190214
0.00036517599354619565
0.00020316745923913042
-4.378609035326087e-06
-0.00018871804942255434
-0.00029424252717391304
-0.0003034376061480978
-0.00025045643682065216
-0.0001970374065896739
-0.00017996083135190217
-0.00017733366593070652
-0.00013923976732336957
-4.728897758152174e-05
6.217624830163043e-05
0.00013880190641983695
0.0001615706734035326
0.0001401154891304348
8.494501528532609e-05
3.940748131793478e-06
-8.012854534646738e-05
-0.00012303891389266303
-8.888576341711956e-05
1.4011548913043478e-05
0.00013092041015625
0.0002018538765285326
0.00020404318104619564
0.0001663871433423913
0.0001401154891304348
0.0001466834026834239
0.00015587848165760868
0.00012347677479619565
4.728897758152174e-05
-3.4153150475543474e-05
-8.58207370923913e-05
-0.00010377303413722825
-9.983228600543478e-05
-6.830630095108695e-05
3.065026324728261e-06
9.764298148777174e-05
0.00015981922978940217
0.00014974842900815217
9.195078974184782e-05
4.772683848505435e-05
4.55375339673913e-05
5.429475203804348e-05
3.327742866847826e-05
-1.8828018851902173e-05
-6.786844004755434e-05
-8.58207370923913e-05
-6.56791355298913e-05
-1.7952297044836957e-05
3.896962041440217e-05
7.618779721467391e-05
6.524127462635869e-05
1.313582710597826e-06
-8.844790251358695e-05
-0.00016419783882472825
-0.00019835098930027172
-0.00019265879755434783
-0.00017032789147418477
-0.00015368917713994565
-0.00014274265455163044
-0.00012303891389266303
-8.231784986413044e-05
-2.4082349694293478e-05
4.0283203124999995e-05
0.00010027014690896739
0.00015062415081521738
0.0001909073539402174
0.00021980617357336956
0.0002263740871263587
0.00019878885020380434
0.00014274265455163044
7.793924082880434e-05
2.276876698369565e-05
-1.0946522588315217e-05
-1.4887270720108696e-05
1.751443614130435e-05
7.706351902173912e-05
0.00013310971467391303
0.0001501862899116848
0.00011471955672554347
3.896962041440217e-05
-5.035400390625e-05
-0.00013748832370923914
-0.00020973537279211956
-0.00025177001953125
-0.0002478292713994565
-0.0002022917374320652
-0.00014361837635869565
-0.00010333517323369564
-9.019934612771738e-05
-9.151292883831521e-05
-9.501581606657609e-05
-0.0001059623386548913
-0.00013354757557744565
-0.0001663871433423913
-0.00016945216966711955
-0.00011953602666440217
-3.678031589673913e-05
2.714737601902174e-05
3.721817680027174e-05
7.005774456521739e-06
-2.276876698369565e-05
-3.327742866847826e-05
-3.721817680027174e-05
-4.685111667798913e-05
-3.984534222146739e-05
1.663871433423913e-05
0.0001164710003396739
0.00021017323369565215
0.00025571076766304346
0.0002513321586277174
0.00021104895550271737
0.00013354757557744565
2.320662788722826e-05
-7.837710173233695e-05
-0.00011471955672554347
-6.874416185461957e-05
1.313582710597826e-05
6.524127462635869e-05
6.130052649456522e-05
2.7585236922554347e-05
8.757218070652174e-07
-3.5028872282608694e-06
1.0070800781249999e-05
3.721817680027174e-05
6.655485733695651e-05
7.487421450407608e-05
4.685111667798913e-05
-4.378609035326087e-06
-4.991614300271739e-05
-7.399849269701087e-05
-8.801004161005434e-05
-0.00010552447775135868
-0.00011866030485733696
-9.501581606657609e-05
-1.2697966202445651e-05
9.983228600543478e-05
0.0001720793350883152
0.00015237559442934782
5.954908288043478e-05
-3.984534222146739e-05
-9.895656419836956e-05
-0.00012347677479619565
-0.0001414290718410326
-0.00015412703804347825
-0.0001322339928668478
-5.867336107336956e-05
3.984534222146739e-05
0.00011734672214673912
0.00014405623726222825
0.0001322339928668478
0.0001112166694972826
9.808084239130435e-05
9.10750679347826e-05
8.319357167119565e-05
7.531207540760869e-05
7.049560546875e-05
6.655485733695651e-05
5.429475203804348e-05
3.634245499320652e-05
2.8023097826086955e-05
4.4223951256793476e-05
7.618779721467391e-05
9.939442510190217e-05
9.58915378736413e-05
6.217624830163043e-05
1.7514436141304347e-06
-7.793924082880434e-05
-0.00016244639521059782
-0.00022812553074048913
-0.00025614862856657605
-0.0002421370796535326
-0.0001922209366508152
-0.00011997388756793478
-4.904042119565217e-05
-6.130052649456522e-06
-8.757218070652174e-07
-1.313582710597826e-05
-8.757218070652174e-06
2.4520210597826086e-05
6.348983101222826e-05
7.662565811820652e-05
5.56083347486413e-05
1.7076575237771737e-05
-2.1893045176630434e-05
-4.115892493206522e-05
-9.195078974184782e-06
8.757218070652174e-05
0.00020316745923913042
0.00024958071501358697
0.0001768958050271739
2.364448879076087e-05
-0.0001261039402173913
-0.00022068189538043478
-0.00026315440302309784
-0.00027366306470788044
-0.00025395932404891303
-0.0001970374065896739
-0.00011953602666440217
-5.298116932744565e-05
-7.443635360054348e-06
3.678031589673913e-05
8.53828761888587e-05
9.54536769701087e-05
2.714737601902174e-05
-9.414009425951087e-05
-0.00019003163213315218
-0.00019265879755434783
-7.706351902173912e-05
0.00014536981997282609
0.00042166005010190214
0.0006462826936141304
0.0007088968028192934
0.0005827928626019022
0.00034941300101902175
0.00012041174847146739
-5.5170473845108694e-05
-0.0001961616847826087
-0.0003034376061480978
-0.0003235792077105978
-0.00022418478260869564
-6.743057914402173e-05
3.896962041440217e-05
6.305197010869565e-05
6.61169964334239e-05
0.00011077880859375
0.0001869666058084239
0.00023644488790760867
0.00021498970363451086
0.00011690886124320651
-2.8023097826086955e-05
-0.00015894350798233695
-0.00020316745923913042
-0.00013310971467391303
-4.816469938858695e-06
9.063720703124999e-05
0.00010552447775135868
5.648405655570652e-05
-2.0141601562499998e-05
-0.00010421089504076086
-0.0001764579441236413
-0.0002075460682744565
-0.00018740446671195653
-0.00015106201171875
-0.0001501862899116848
-0.0001974752674932065
-0.00025177001953125
-0.0002666572902513587
-0.00023513130519701086
-0.00018039869225543477
-0.0001221631920855978
-6.480341372282608e-05
-1.5325131623641304e-05
1.357368800951087e-05
3.1088124150815216e-05
6.392769191576087e-05
0.00011559527853260869
0.00015281345533288044
0.00014799698539402173
0.00011866030485733696
9.851870329483695e-05
9.195078974184782e-05
7.881496263586956e-05
4.597539487092391e-05
-1.313582710597826e-06
-5.7359778362771735e-05
-0.00011822244395380434
-0.0001707657523777174
-0.00018565302309782607
-0.0001401154891304348
-5.166758661684782e-05
2.627165421195652e-05
5.56083347486413e-05
4.8164699388586956e-05
3.7656037703804346e-05
3.4153150475543474e-05
2.276876698369565e-05
1.7514436141304347e-06
-1.313582710597826e-05
-1.8390157948369565e-05
-2.714737601902174e-05
-5.0791864809782605e-05
-7.881496263586956e-05
-8.844790251358695e-05
-6.699271824048912e-05
-2.4082349694293478e-05
1.1384383491847825e-05
1.1822244395380435e-05
-3.1525985054347824e-05
-9.676725968070652e-05
-0.0001462455417798913
-0.00014887270720108695
-0.0001011458687160326
-2.8460958729619564e-05
3.721817680027174e-05
8.58207370923913e-05
0.00013310971467391303
0.0002009781547214674
0.000281982421875
0.00033671503481657607
0.00033014712126358694
0.0002627165421195652
0.00016901430876358696
8.844790251358695e-05
3.984534222146739e-05
2.057946246603261e-05
1.5325131623641304e-05
1.0070800781249999e-05
1.7514436141304347e-06
-1.7514436141304347e-06
2.627165421195652e-06
9.195078974184782e-06
1.0070800781249999e-05
4.816469938858695e-06
-4.816469938858695e-06
-2.977454144021739e-05
-7.837710173233695e-05
-0.00013310971467391303
-0.00014799698539402173
-8.669645889945652e-05
3.678031589673913e-05
0.0001615706734035326
0.0002276876698369565
0.0002176168690557065
0.00015325131623641303
7.224704908288043e-05
1.0070800781249999e-05
-7.005774456521739e-06
1.4887270720108696e-05
4.072106402853261e-05
3.940748131793478e-05
2.1017323369565217e-05
1.970374065896739e-05
3.940748131793478e-05
4.509967306385869e-05
9.63293987771739e-06
-5.341903023097826e-05
-0.00011690886124320651
-0.00017251719599184782
-0.00022506050441576086
-0.0002592136548913043
-0.00024476424507472827
-0.0001768958050271739
-9.676725968070652e-05
-5.429475203804348e-05
-6.04248046875e-05
-8.363143257472826e-05
-9.10750679347826e-05
-8.231784986413044e-05
-7.443635360054348e-05
-7.093346637228261e-05
-4.904042119565217e-05
1.357368800951087e-05
0.00010640019955842391
0.0001768958050271739
0.00017514436141304347
0.00010552447775135868
2.4520210597826086e-05
-8.319357167119564e-06
1.1384383491847825e-05
4.291036854619565e-05
3.984534222146739e-05
-3.940748131793478e-06
-6.261410920516304e-05
-0.00010902736497961956
-0.00013398543648097824
-0.00013705046280570652
-0.00011997388756793478
-8.713431980298913e-05
-4.728897758152174e-05
-1.0070800781249999e-05
1.663871433423913e-05
3.065026324728261e-05
4.0283203124999995e-05
6.04248046875e-05
0.00010289731233016304
0.00016901430876358696
0.00025352146314538043
0.0003529158882472826
0.00046150539232336956
0.0005547697647758151
0.0005810414189877717
0.0004895284901494565
0.0002802309782608696
2.057946246603261e-05
-0.00019572382387907607
-0.00031525985054347823
-0.0003467858355978261
-0.0003275199558423913
-0.0002771659519361413
-0.00019659954568614129
-0.00010289731233016304
-3.721817680027174e-05
-2.4520210597826086e-05
-4.4223951256793476e-05
-6.655485733695651e-05
-0.00010202159052309782
-0.00018127441406249998
-0.00029161536175271736
-0.00036561385444972824
-0.00034985086192255435
-0.00025614862856657605
-0.00013398543648097824
-1.751443614130435e-05
8.669645889945652e-05
0.00016989003057065217
0.00020491890285326085
0.0001768958050271739
0.00011822244395380434
8.319357167119565e-05
8.012854534646738e-05
6.743057914402173e-05
2.0141601562499998e-05
-3.721817680027174e-05
-8.58207370923913e-05
-0.0001409912109375
-0.00021323826002038042
-0.00026403012483016303
-0.00024169921875
-0.0001409912109375
-1.0946522588315217e-05
8.713431980298913e-05
0.00012479035750679349
0.00011690886124320651
9.238865064538043e-05
6.918202275815218e-05
5.5170473845108694e-05
5.7359778362771735e-05
7.356063179347826e-05
8.844790251358695e-05
9.195078974184782e-05
9.632939877717391e-05
0.00012260105298913043
0.0001716414741847826
0.00022418478260869564
0.00025527290675951087
0.0002491428541100543
0.00020054029381793477
0.00010990308678668478
-1.926587975543478e-05
-0.00017602008322010869
-0.0003209520422894022
-0.0004023941703464674
-0.00039013406504755435
-0.00029949685801630433
-0.00017864724864130434
-7.443635360054348e-05
-9.195078974184782e-06
2.2330906080163042e-05
4.2034646739130435e-05
6.348983101222826e-05
7.57499363111413e-05
4.509967306385869e-05
-3.896962041440217e-05
-0.00013004468834918478
-0.00014799698539402173
-6.173838739809782e-05
7.180918817934783e-05
0.00016594928243885868
0.0001869666058084239
0.00016375997792119566
0.0001361747409986413
0.00011296811311141304
8.231784986413044e-05
3.283956776494565e-05
-3.4153150475543474e-05
-0.00010683806046195652
-0.0001554406207540761
-0.00014055335003396738
-4.247250764266304e-05
9.764298148777174e-05
0.0001970374065896739
0.00020272959833559783
0.00013398543648097824
4.685111667798913e-05
-2.4958071501358695e-05
-7.969068444293477e-05
-0.00011690886124320651
-0.00012785538383152173
-0.0001059623386548913
-5.867336107336956e-05
-8.757218070652174e-06
2.364448879076087e-05
3.896962041440217e-05
5.911122197690217e-05
0.00010946522588315217
0.00018828018851902174
0.00025527290675951087
0.0002522078804347826
0.0001554406207540761
3.940748131793478e-06
-0.00012741752292798914
-0.00019134521484375
-0.00019134521484375
-0.00015281345533288044
-9.019934612771738e-05
-1.0946522588315217e-05
6.348983101222826e-05
0.00010552447775135868
0.00010202159052309782
6.874416185461957e-05
3.065026324728261e-05
2.1893045176630435e-06
-1.313582710597826e-05
-1.4449409816576086e-05
-6.130052649456522e-06
-9.195078974184782e-06
-5.298116932744565e-05
-0.0001401154891304348
-0.00022418478260869564
-0.00024520210597826086
-0.00018740446671195653
-9.414009425951087e-05
-1.926587975543478e-05
1.8828018851902173e-05
3.1525985054347824e-05
3.1525985054347824e-05
2.4958071501358695e-05
1.926587975543478e-05
2.627165421195652e-05
4.4223951256793476e-05
5.867336107336956e-05
6.348983101222826e-05
7.487421450407608e-05
0.00010990308678668478
0.00015062415081521738
0.00015500275985054347
0.00010202159052309782
6.130052649456522e-06
-0.00010158372961956521
-0.00019046949303668477
-0.00022330906080163043
-0.00017777152683423912
-7.618779721467391e-05
2.320662788722826e-05
7.618779721467391e-05
8.669645889945652e-05
8.144212805706522e-05
6.743057914402173e-05
3.1088124150815216e-05
-2.4520210597826086e-05
-6.61169964334239e-05
-5.998694378396739e-05
-1.0508661684782609e-05
4.685111667798913e-05
8.231784986413044e-05
8.801004161005434e-05
7.180918817934783e-05
4.378609035326087e-05
1.7076575237771737e-05
5.6921917459239125e-06
1.663871433423913e-05
4.2034646739130435e-05
6.480341372282608e-05
7.312277088994565e-05
6.56791355298913e-05
4.378609035326087e-05
-4.378609035326087e-07
-6.961988366168479e-05
-0.00014493195906929346
-0.0001974752674932065
-0.00021148681640625
-0.00018521516219429347
-0.0001164710003396739
-1.1822244395380435e-05
9.808084239130435e-05
0.00016901430876358696
0.00017733366593070652
0.00013748832370923914
7.969068444293477e-05
1.7952297044836957e-05
-5.166758661684782e-05
-0.00012960682744565216
-0.00019265879755434783
-0.00021411398182744564
-0.0001917830757472826
-0.00014318051545516303
-8.187998896059783e-05
-1.0946522588315217e-05
6.04248046875e-05
0.00011253025220788043
0.00012479035750679349
9.019934612771738e-05
2.320662788722826e-05
-3.984534222146739e-05
-6.480341372282608e-05
-3.984534222146739e-05
1.4011548913043478e-05
6.743057914402173e-05
9.983228600543478e-05
0.00010027014690896739
6.786844004755434e-05
1.5762992527173912e-05
-3.240170686141304e-05
-6.04248046875e-05
-7.443635360054348e-05
-9.10750679347826e-05
-0.00011428169582201086
-0.0001261039402173913
-0.00010727592136548913
-6.086266559103261e-05
-6.56791355298913e-06
3.327742866847826e-05
4.685111667798913e-05
3.4153150475543474e-05
1.926587975543478e-05
3.4153150475543474e-05
8.319357167119565e-05
0.0001366126019021739
0.00016332211701766304
0.00016200853430706522
0.0001475591244904891
0.00012260105298913043
8.275571076766304e-05
3.459101137907609e-05
-2.627165421195652e-06
-2.276876698369565e-05
-4.4223951256793476e-05
-8.932362432065217e-05
-0.00015368917713994565
-0.00020579462466032607
-0.00021849259086277172
-0.00019309665845788042
-0.00014405623726222825
-8.100426715353261e-05
-7.005774456521739e-06
6.130052649456522e-05
0.00010027014690896739
9.501581606657609e-05
5.911122197690217e-05
2.1017323369565217e-05
2.627165421195652e-06
5.6921917459239125e-06
2.1455184273097826e-05
3.721817680027174e-05
4.247250764266304e-05
2.627165421195652e-05
-7.005774456521739e-06
-3.7656037703804346e-05
-4.1596785835597826e-05
-1.4449409816576086e-05
2.8460958729619564e-05
7.093346637228261e-05
9.895656419836956e-05
9.676725968070652e-05
5.604619565217391e-05
-1.5762992527173912e-05
-0.00010245945142663043
-0.00019046949303668477
-0.0002666572902513587
-0.0002981832753057065
-0.0002421370796535326
-9.851870329483695e-05
6.392769191576087e-05
0.00015938136888586955
0.00015938136888586955
0.00010771378226902174
6.786844004755434e-05
6.786844004755434e-05
9.501581606657609e-05
0.00011866030485733696
0.00012128747027853261
0.00010464875594429347
7.881496263586956e-05
5.429475203804348e-05
4.0283203124999995e-05
3.5466733186141305e-05
3.196384595788043e-05
2.8023097826086955e-05
3.196384595788043e-05
4.772683848505435e-05
5.911122197690217e-05
4.991614300271739e-05
2.714737601902174e-05
1.1384383491847825e-05
8.757218070652174e-06
4.816469938858695e-06
-8.319357167119564e-06
-1.926587975543478e-05
-1.620085343070652e-05
-1.751443614130435e-05
-5.648405655570652e-05
-0.0001322339928668478
-0.00019265879755434783
-0.00018477730129076085
-0.00010990308678668478
-1.926587975543478e-05
4.4661812160326084e-05
8.187998896059783e-05
0.0001164710003396739
0.00015193773352581522
0.00016113281249999998
0.00012347677479619565
6.04248046875e-05
1.2260105298913043e-05
-1.4011548913043478e-05
-6.173838739809782e-05
-0.00016989003057065217
-0.0003161355723505435
-0.00041071352751358695
-0.00037305748980978257
-0.00021323826002038042
-2.8460958729619564e-05
9.370223335597826e-05
0.00014318051545516303
0.00015237559442934782
0.0001401154891304348
0.00011384383491847825
9.54536769701087e-05
0.00010815164317255435
0.00013748832370923914
0.00014361837635869565
0.00010858950407608696
5.0791864809782605e-05
-7.881496263586956e-06
-6.699271824048912e-05
-0.00012479035750679349
-0.00015938136888586955
-0.0001501862899116848
-0.00010771378226902174
-6.436555281929347e-05
-3.50288722826087e-05
-6.130052649456522e-06
3.283956776494565e-05
7.00577445652174e-05
8.801004161005434e-05
8.58207370923913e-05
7.268490998641304e-05
4.597539487092391e-05
1.7514436141304347e-06
-4.4661812160326084e-05
-6.61169964334239e-05
-4.509967306385869e-05
8.319357167119564e-06
6.56791355298913e-05
9.501581606657609e-05
7.531207540760869e-05
1.0946522588315217e-05
-6.305197010869565e-05
-0.00010815164317255435
-0.00011034094769021739
-9.282651154891303e-05
-8.319357167119565e-05
-8.801004161005434e-05
-9.238865064538043e-05
-8.319357167119565e-05
-6.173838739809782e-05
-3.8093898607336954e-05
-1.620085343070652e-05
6.130052649456522e-06
2.8023097826086955e-05
4.0283203124999995e-05
3.721817680027174e-05
2.320662788722826e-05
9.195078974184782e-06
6.56791355298913e-06
2.1893045176630434e-05
4.8164699388586956e-05
6.655485733695651e-05
6.480341372282608e-05
4.728897758152174e-05
2.627165421195652e-05
7.881496263586956e-06
-1.0070800781249999e-05
-2.933668053668478e-05
-4.685111667798913e-05
-6.173838739809782e-05
-8.231784986413044e-05
-0.00011953602666440217
-0.0001720793350883152
-0.0002123625382133152
-0.0002009781547214674
-0.00011866030485733696
1.0508661684782609e-05
0.00013267185377038043
0.0001970374065896739
0.00019572382387907607
0.00016332211701766304
0.00013880190641983695
0.0001313582710597826
0.00011866030485733696
8.100426715353261e-05
2.7585236922554347e-05
-1.1384383491847825e-05
-1.8828018851902173e-05
-3.940748131793478e-06
1.1822244395380435e-05
2.320662788722826e-05
3.634245499320652e-05
5.0791864809782605e-05
5.166758661684782e-05
2.933668053668478e-05
-3.065026324728261e-06
-2.1455184273097826e-05
-1.0508661684782609e-05
2.714737601902174e-05
8.801004161005434e-05
0.00016857644786005433
0.00025352146314538043
0.0003073783542798913
0.00029424252717391304
0.00021017323369565215
8.625859799592391e-05
-3.4153150475543474e-05
-0.00013048254925271738
-0.00020360532014266304
-0.00025614862856657605
-0.000281982421875
-0.00027585236922554346
-0.00024563996688179346
-0.0002075460682744565
-0.00016989003057065217
-0.00012829324473505435
-8.100426715353261e-05
-3.3715289572010865e-05
2.1893045176630435e-06
2.2330906080163042e-05
3.1088124150815216e-05
3.327742866847826e-05
2.627165421195652e-05
2.1893045176630435e-06
-3.5466733186141305e-05
-7.180918817934783e-05
-8.801004161005434e-05
-7.969068444293477e-05
-4.728897758152174e-05
5.254330842391304e-06
6.786844004755434e-05
0.0001112166694972826
0.0001059623386548913
4.8164699388586956e-05
-3.021240234375e-05
-9.063720703124999e-05
-0.00011296811311141304
-0.00010333517323369564
-7.487421450407608e-05
-3.50288722826087e-05
6.56791355298913e-06
3.1525985054347824e-05
2.1017323369565217e-05
-2.2330906080163042e-05
-7.443635360054348e-05
-0.00010158372961956521
-8.275571076766304e-05
-1.751443614130435e-05
7.093346637228261e-05
0.00014887270720108695
0.00019046949303668477
0.00019134521484375
0.00016200853430706522
0.00010858950407608696
3.240170686141304e-05
-5.648405655570652e-05
-0.00012785538383152173
-0.00014318051545516303
-9.063720703124999e-05
6.56791355298913e-06
0.00011077880859375
0.00019484810207201085
0.00024476424507472827
0.0002478292713994565
0.0002009781547214674
0.00012391463569972824
4.772683848505435e-05
-1.313582710597826e-05
-6.786844004755434e-05
-0.00012522821841032608
-0.00016813858695652174
-0.0001668250042459239
-0.00011384383491847825
-3.7656037703804346e-05
2.583379330842391e-05
6.392769191576087e-05
8.625859799592391e-05
0.00010245945142663043
0.00011428169582201086
0.00012172533118206522
0.00012741752292798914
0.00012873110563858695
0.00011690886124320651
7.881496263586956e-05
6.130052649456522e-06
-9.10750679347826e-05
-0.00018390157948369563
-0.00023337986158288043
-0.0002219954780910326
-0.0001663871433423913
-0.00010289731233016304
-5.823550016983695e-05
-3.50288722826087e-05
-2.5395932404891303e-05
-2.933668053668478e-05
-5.56083347486413e-05
-0.00010027014690896739
-0.00013705046280570652
-0.00013267185377038043
-8.231784986413044e-05
-1.5325131623641304e-05
2.7585236922554347e-05
3.50288722826087e-05
2.583379330842391e-05
2.7585236922554347e-05
4.685111667798913e-05
7.837710173233695e-05
0.00011866030485733696
0.00016288425611413044
0.00019134521484375
0.00018346371858016304
0.00014536981997282609
0.00010640019955842391
8.669645889945652e-05
7.356063179347826e-05
3.590459408967391e-05
-3.984534222146739e-05
-0.00013967762822690217
-0.00023119055706521737
-0.00028898819633152174
-0.00030431332795516304
-0.00028373386548913044
-0.00023819633152173913
-0.00017514436141304347
-0.00010333517323369564
-3.50288722826087e-05
1.8828018851902173e-05
5.035400390625e-05
5.692191745923913e-05
3.853175951086956e-05
-1.313582710597826e-06
-4.641325577445652e-05
-6.217624830163043e-05
-1.926587975543478e-05
6.436555281929347e-05
0.00012960682744565216
0.00012873110563858695
7.57499363111413e-05
2.1893045176630434e-05
-4.378609035326087e-07
-8.757218070652174e-07
-7.005774456521739e-06
-3.50288722826087e-05
-7.837710173233695e-05
-0.00011559527853260869
-0.00012697966202445651
-0.0001007080078125
-3.50288722826087e-05
5.867336107336956e-05
0.00015894350798233695
0.00024169921875
0.00028636103091032606
0.0002881124745244565
0.0002644679857336956
0.0002421370796535326
0.00023337986158288043
0.00021936831266983694
0.0001716414741847826
8.319357167119565e-05
-2.1017323369565217e-05
-0.00010640019955842391
-0.00015193773352581522
-0.00016025709069293476
-0.00014230479364809781
-9.676725968070652e-05
-1.4011548913043478e-05
9.895656419836956e-05
0.00019791312839673912
0.00021849259086277172
0.00013354757557744565
-1.663871433423913e-05
-0.00015981922978940217
-0.00025308360224184784
-0.0002981832753057065
-0.0003082540760869565
-0.0002771659519361413
-0.00019878885020380434
-9.895656419836956e-05
-2.933668053668478e-05
-1.926587975543478e-05
-4.378609035326087e-05
-4.991614300271739e-05
-7.881496263586956e-06
7.00577445652174e-05
0.00014843484629755433
0.0001860908840013587
0.0001615706734035326
8.801004161005434e-05
5.6921917459239125e-06
-4.4661812160326084e-05
-5.298116932744565e-05
-3.283956776494565e-05
-3.5028872282608694e-06
2.7585236922554347e-05
6.392769191576087e-05
9.983228600543478e-05
0.00011822244395380434
0.00010640019955842391
6.830630095108695e-05
1.970374065896739e-05
-3.283956776494565e-05
-0.00010245945142663043
-0.0002022917374320652
-0.00031701129415760866
-0.0003923233695652174
-0.0003765603770380435
-0.0002679708729619565
-0.00011384383491847825
3.984534222146739e-05
0.0001764579441236413
0.00027891739555027174
0.0003183248768682065
0.0002850474481997282
0.00022418478260869564
0.00019528596297554347
0.0002018538765285326
0.00019134521484375
0.00012873110563858695
4.1596785835597826e-05
-2.1893045176630434e-05
-5.954908288043478e-05
-0.00010552447775135868
-0.00017032789147418477
-0.00021805472995923913
-0.00020798392917798913
-0.00014493195906929346
-6.874416185461957e-05
-1.0946522588315217e-05
2.670951511548913e-05
5.0791864809782605e-05
5.7797639266304343e-05
4.334822944972826e-05
1.0508661684782609e-05
-3.1525985054347824e-05
-7.399849269701087e-05
-0.00010202159052309782
-0.00010245945142663043
-7.969068444293477e-05
-5.166758661684782e-05
-3.021240234375e-05
-1.0070800781249999e-05
2.057946246603261e-05
5.911122197690217e-05
8.669645889945652e-05
9.370223335597826e-05
8.844790251358695e-05
8.450715438179348e-05
8.231784986413044e-05
7.356063179347826e-05
5.823550016983695e-05
4.728897758152174e-05
4.8602560292119564e-05
5.4732612941576086e-05
5.4732612941576086e-05
4.4661812160326084e-05
2.8460958729619564e-05
7.005774456521739e-06
-2.320662788722826e-05
-6.04248046875e-05
-8.976148522418478e-05
-0.00010027014690896739
-9.501581606657609e-05
-8.58207370923913e-05
-7.399849269701087e-05
-5.604619565217391e-05
-3.5466733186141305e-05
-1.2697966202445651e-05
2.320662788722826e-05
8.494501528532609e-05
0.00016244639521059782
0.00022593622622282608
0.00024038563603940216
0.00017996083135190217
4.1596785835597826e-05
-0.00014230479364809781
-0.0003082540760869565
-0.0003866311778192935
-0.0003432829483695652
-0.0002022917374320652
-3.327742866847826e-05
9.720512058423913e-05
0.00016332211701766304
0.00017602008322010869
0.00016025709069293476
0.00013442329738451087
0.00010815164317255435
7.57499363111413e-05
3.021240234375e-05
-2.364448879076087e-05
-7.093346637228261e-05
-0.00010464875594429347
-0.0001401154891304348
-0.00018871804942255434
-0.00022330906080163043
-0.0001808365531589674
-1.926587975543478e-05
0.00022900125254755435
0.00046719758406929345
0.0005919879415760869
0.0005604619565217391
0.00040020486582880436
0.00017908510954483696
-3.196384595788043e-05
-0.00017777152683423912
-0.00022549836531929348
-0.00018127441406249998
-8.976148522418478e-05
-9.63293987771739e-06
1.926587975543478e-05
-1.1822244395380435e-05
-8.844790251358695e-05
-0.00017602008322010869
-0.00022900125254755435
-0.00021455184273097826
-0.00013792618461277173
-4.55375339673913e-05
6.130052649456522e-06
-1.313582710597826e-06
-4.4223951256793476e-05
-9.019934612771738e-05
-0.00013004468834918478
-0.00016945216966711955
-0.000201416015625
-0.00020491890285326085
-0.00016901430876358696
-0.00010377303413722825
-2.627165421195652e-05
4.904042119565217e-05
0.00010815164317255435
0.00013486115828804346
0.00012391463569972824
9.151292883831521e-05
6.524127462635869e-05
5.56083347486413e-05
4.728897758152174e-05
2.583379330842391e-05
2.1893045176630435e-06
-4.378609035326087e-07
1.970374065896739e-05
3.940748131793478e-05
3.7656037703804346e-05
2.583379330842391e-05
3.4153150475543474e-05
7.837710173233695e-05
0.00013923976732336957
0.0001821501358695652
0.00017908510954483696
0.00012522821841032608
4.072106402853261e-05
-3.896962041440217e-05
-8.53828761888587e-05
-8.363143257472826e-05
-3.634245499320652e-05
3.8093898607336954e-05
0.00010727592136548913
0.00013967762822690217
0.0001261039402173913
7.793924082880434e-05
8.757218070652174e-06
-7.487421450407608e-05
-0.00016288425611413044
-0.00023337986158288043
-0.0002574622112771739
-0.00021980617357336956
-0.00013442329738451087
-3.721817680027174e-05
4.2034646739130435e-05
9.720512058423913e-05
0.00013004468834918478
0.0001322339928668478
9.58915378736413e-05
3.283956776494565e-05
-2.627165421195652e-05
-6.524127462635869e-05
-8.976148522418478e-05
-0.00011428169582201086
-0.00013923976732336957
-0.0001501862899116848
-0.00013880190641983695
-0.00011515741762907608
-9.195078974184782e-05
-6.524127462635869e-05
-1.7076575237771737e-05
4.772683848505435e-05
9.58915378736413e-05
9.414009425951087e-05
4.947828209918478e-05
5.254330842391304e-06
4.816469938858695e-06
5.867336107336956e-05
0.0001401154891304348
0.0002075460682744565
0.00023119055706521737
0.00020842179008152172
0.00015850564707880433
0.00010640019955842391
7.093346637228261e-05
6.173838739809782e-05
7.312277088994565e-05
8.144212805706522e-05
5.692191745923913e-05
-2.1893045176630435e-06
-6.348983101222826e-05
-8.669645889945652e-05
-6.874416185461957e-05
-4.509967306385869e-05
-4.8164699388586956e-05
-7.487421450407608e-05
-9.720512058423913e-05
-0.00010202159052309782
-9.720512058423913e-05
-9.019934612771738e-05
-7.268490998641304e-05
-3.5466733186141305e-05
1.5762992527173912e-05
6.830630095108695e-05
0.00010552447775135868
0.00010946522588315217
6.524127462635869e-05
-2.1893045176630434e-05
-0.00012128747027853261
-0.00018959377122961955
-0.0002009781547214674
-0.00016244639521059782
-9.808084239130435e-05
-2.4082349694293478e-05
5.4732612941576086e-05
0.00012829324473505435
0.00016989003057065217
0.0001554406207540761
9.54536769701087e-05
2.583379330842391e-05
-2.670951511548913e-05
-6.392769191576087e-05
-9.195078974184782e-05
-0.0001007080078125
-7.180918817934783e-05
-1.4011548913043478e-05
2.4520210597826086e-05
-3.940748131793478e-06
-9.764298148777174e-05
-0.00018915591032608696
-0.0002009781547214674
-0.00011253025220788043
2.364448879076087e-05
0.00013398543648097824
0.00017777152683423912
0.00017032789147418477
0.00015412703804347825
0.00015500275985054347
0.00016200853430706522
0.00015106201171875
0.0001160331394361413
7.837710173233695e-05
5.648405655570652e-05
3.721817680027174e-05
-1.5325131623641304e-05
-0.00012041174847146739
-0.00024826713230298913
-0.00033058498216711953
-0.00031394626783288045
-0.00020491890285326085
-6.130052649456522e-05
5.385689113451087e-05
0.00011165453040081521
0.00011384383491847825
7.837710173233695e-05
3.4153150475543474e-05
1.0946522588315217e-05
1.357368800951087e-05
1.4449409816576086e-05
-1.4011548913043478e-05
-6.04248046875e-05
-7.399849269701087e-05
-2.057946246603261e-05
7.312277088994565e-05
0.00014405623726222825
0.0001554406207540761
0.00013354757557744565
0.00013529901919157608
0.00018915591032608696
0.00026096509850543476
0.00028855033542798914
0.00024082349694293478
0.00014318051545516303
4.291036854619565e-05
-3.3715289572010865e-05
-8.53828761888587e-05
-0.00011734672214673912
-0.00013486115828804346
-0.00014799698539402173
-0.00017426863960597825
-0.0002215576171875
-0.00027059803838315217
-0.0002780416737432065
-0.0002176168690557065
-0.00011077880859375
-4.816469938858695e-06
6.61169964334239e-05
9.676725968070652e-05
8.932362432065217e-05
5.0791864809782605e-05
-4.378609035326087e-06
-5.867336107336956e-05
-9.720512058423913e-05
-0.00010640019955842391
-7.57499363111413e-05
-1.2260105298913043e-05
5.604619565217391e-05
9.457795516304348e-05
8.494501528532609e-05
3.853175951086956e-05
-1.4887270720108696e-05
-5.254330842391304e-05
-6.786844004755434e-05
-6.56791355298913e-05
-5.648405655570652e-05
-5.341903023097826e-05
-5.604619565217391e-05
-3.940748131793478e-05
1.970374065896739e-05
0.00010464875594429347
0.00016375997792119566
0.00016857644786005433
0.00013705046280570652
0.00010377303413722825
7.662565811820652e-05
4.1596785835597826e-05
0.0
-2.8898819633152172e-05
-4.0283203124999995e-05
-5.954908288043478e-05
-0.0001011458687160326
-0.0001361747409986413
-0.00011384383491847825
-2.583379330842391e-05
8.144212805706522e-05
0.00015412703804347825
0.00017383077870244563
0.00015456489894701087
0.00011165453040081521
4.947828209918478e-05
-2.627165421195652e-05
-0.00010771378226902174
-0.00018302585767663042
-0.0002443263841711956
-0.00028898819633152174
-0.00031657343325407607
-0.00031131910241168477
-0.0002443263841711956
-0.00010377303413722825
6.830630095108695e-05
0.0001860908840013587
0.0001869666058084239
9.019934612771738e-05
-1.751443614130435e-05
-5.254330842391304e-05
3.940748131793478e-06
0.00010683806046195652
0.00019265879755434783
0.00022812553074048913
0.00021893045176630434
0.00019134521484375
0.0001668250042459239
0.00014843484629755433
0.00012260105298913043
7.881496263586956e-05
2.583379330842391e-05
-1.2260105298913043e-05
-1.5762992527173912e-05
1.357368800951087e-05
5.210544752038043e-05
6.961988366168479e-05
5.166758661684782e-05
4.378609035326087e-06
-4.597539487092391e-05
-6.743057914402173e-05
-3.984534222146739e-05
2.670951511548913e-05
0.00010421089504076086
0.0001663871433423913
0.0002018538765285326
0.00020316745923913042
0.00015981922978940217
6.655485733695651e-05
-6.305197010869565e-05
-0.0001922209366508152
-0.0002767280910326087
-0.00029117750084918477
-0.00025045643682065216
-0.00019572382387907607
-0.00016113281249999998
-0.00014887270720108695
-0.00013573688009510868
-0.00010289731233016304
-5.648405655570652e-05
-1.5325131623641304e-05
1.4449409816576086e-05
4.291036854619565e-05
6.961988366168479e-05
8.319357167119565e-05
7.57499363111413e-05
5.604619565217391e-05
3.634245499320652e-05
1.663871433423913e-05
-8.757218070652174e-06
-3.5466733186141305e-05
-4.597539487092391e-05
-3.5466733186141305e-05
-2.276876698369565e-05
-2.5395932404891303e-05
-3.678031589673913e-05
-3.678031589673913e-05
-2.057946246603261e-05
-4.816469938858695e-06
4.378609035326087e-07
3.5028872282608694e-06
1.357368800951087e-05
2.2330906080163042e-05
1.2260105298913043e-05
-2.2330906080163042e-05
-7.137132727581522e-05
-0.00011471955672554347
-0.00013486115828804346
-0.00011822244395380434
-5.998694378396739e-05
2.5395932404891303e-05
0.00010771378226902174
0.00015106201171875
0.00014405623726222825
0.00010464875594429347
6.305197010869565e-05
3.5466733186141305e-05
2.1017323369565217e-05
1.8390157948369565e-05
3.7656037703804346e-05
9.10750679347826e-05
0.00016813858695652174
0.00023162841796875
0.00024082349694293478
0.00018784232761548912
8.888576341711956e-05
-4.0283203124999995e-05
-0.00018784232761548912
-0.00031525985054347823
-0.00036605171535326084
-0.0003126326851222826
-0.00018784232761548912
-5.998694378396739e-05
2.4520210597826086e-05
6.305197010869565e-05
7.180918817934783e-05
6.392769191576087e-05
5.166758661684782e-05
5.254330842391304e-05
8.231784986413044e-05
0.00012960682744565216
0.00016726286514945652
0.0001768958050271739
0.0001554406207540761
0.00010289731233016304
2.4520210597826086e-05
-6.173838739809782e-05
-0.0001322339928668478
-0.00017470650050951088
-0.00018039869225543477
-0.0001409912109375
-7.224704908288043e-05
-2.1455184273097826e-05
-2.7585236922554347e-05
-7.093346637228261e-05
-8.713431980298913e-05
-3.50288722826087e-05
5.823550016983695e-05
0.00012741752292798914
0.00012347677479619565
5.867336107336956e-05
-1.5325131623641304e-05
-5.56083347486413e-05
-4.685111667798913e-05
8.757218070652174e-07
6.436555281929347e-05
0.00011253025220788043
0.00012260105298913043
9.414009425951087e-05
3.940748131793478e-05
-3.678031589673913e-05
-0.0001313582710597826
-0.0002163032863451087
-0.0002443263841711956
-0.00018477730129076085
-6.261410920516304e-05
5.7359778362771735e-05
0.00012347677479619565
0.0001366126019021739
0.00013267185377038043
0.0001322339928668478
0.00011909816576086957
6.61169964334239e-05
-2.4520210597826086e-05
-0.00011822244395380434
-0.0001755822223165761
-0.0001764579441236413
-0.00012260105298913043
-3.5466733186141305e-05
4.334822944972826e-05
7.443635360054348e-05
5.035400390625e-05
2.627165421195652e-06
-2.4958071501358695e-05
-1.751443614130435e-05
1.2260105298913043e-05
4.334822944972826e-05
6.348983101222826e-05
7.093346637228261e-05
6.961988366168479e-05
6.743057914402173e-05
6.874416185461957e-05
7.049560546875e-05
6.830630095108695e-05
5.823550016983695e-05
4.247250764266304e-05
2.364448879076087e-05
6.130052649456522e-06
-3.5028872282608694e-06
-1.7514436141304347e-06
7.881496263586956e-06
1.0070800781249999e-05
-1.0070800781249999e-05
-4.334822944972826e-05
-5.692191745923913e-05
-3.1525985054347824e-05
1.0946522588315217e-05
3.021240234375e-05
1.357368800951087e-05
-7.881496263586956e-06
-5.6921917459239125e-06
5.254330842391304e-06
-1.620085343070652e-05
-7.925282353940217e-05
-0.00013836404551630435
-0.00014580768087635868
-9.939442510190217e-05
-3.721817680027174e-05
7.881496263586956e-06
2.7585236922554347e-05
2.933668053668478e-05
2.7585236922554347e-05
3.50288722826087e-05
5.166758661684782e-05
6.743057914402173e-05
7.049560546875e-05
5.648405655570652e-05
3.196384595788043e-05
1.4011548913043478e-05
1.926587975543478e-05
5.166758661684782e-05
8.844790251358695e-05
9.195078974184782e-05
4.4223951256793476e-05
-3.1525985054347824e-05
-9.151292883831521e-05
-0.00010946522588315217
-0.0001007080078125
-9.632939877717391e-05
-0.00010377303413722825
-0.00010552447775135868
-8.494501528532609e-05
-4.728897758152174e-05
-5.254330842391304e-06
3.678031589673913e-05
8.275571076766304e-05
0.00012697966202445651
0.00015806778617527174
0.00016200853430706522
0.00012654180112092392
4.947828209918478e-05
-4.55375339673913e-05
-0.00011778458305027173
-0.00013836404551630435
-0.00011997388756793478
-0.00010245945142663043
-0.00011778458305027173
-0.00015850564707880433
-0.00019003163213315218
-0.00017339291779891304
-9.632939877717391e-05
1.8390157948369565e-05
0.00012391463569972824
0.0001768958050271739
0.00016463569972826087
0.00011253025220788043
6.217624830163043e-05
4.0283203124999995e-05
4.334822944972826e-05
4.991614300271739e-05
4.597539487092391e-05
3.283956776494565e-05
1.357368800951087e-05
-1.4887270720108696e-05
-5.254330842391304e-05
-8.669645889945652e-05
-0.00010552447775135868
-0.00010902736497961956
-9.939442510190217e-05
-7.180918817934783e-05
-2.4082349694293478e-05
3.240170686141304e-05
8.231784986413044e-05
0.00012303891389266303
0.00015938136888586955
0.00019484810207201085
0.00022374692170516302
0.00022724980893342391
0.0001768958050271739
5.648405655570652e-05
-0.00010683806046195652
-0.0002478292713994565
-0.0003034376061480978
-0.0002596515157948369
-0.00015806778617527174
-5.998694378396739e-05
0.0
2.8023097826086955e-05
3.853175951086956e-05
2.977454144021739e-05
-7.443635360054348e-06
-6.830630095108695e-05
-0.00012960682744565216
-0.00016244639521059782
-0.00014536981997282609
-7.925282353940217e-05
1.2260105298913043e-05
9.808084239130435e-05
0.00016244639521059782
0.00020973537279211956
0.00023556916610054346
0.0002176168690557065
0.0001409912109375
3.1525985054347824e-05
-5.254330842391304e-05
-7.750137992527173e-05
-5.954908288043478e-05
-3.634245499320652e-05
-2.1017323369565217e-05
4.378609035326087e-07
3.240170686141304e-05
5.4732612941576086e-05
5.1229725713315214e-05
3.5466733186141305e-05
4.115892493206522e-05
8.012854534646738e-05
0.0001261039402173913
0.00013748832370923914
9.676725968070652e-05
2.276876698369565e-05
-4.685111667798913e-05
-8.669645889945652e-05
-9.939442510190217e-05
-0.00011034094769021739
-0.00013573688009510868
-0.00016113281249999998
-0.00015456489894701087
-0.0001011458687160326
-2.714737601902174e-05
2.4082349694293478e-05
2.7585236922554347e-05
-1.2260105298913043e-05
-7.399849269701087e-05
-0.0001361747409986413
-0.0001817122749660326
-0.00019003163213315218
-0.00014493195906929346
-5.298116932744565e-05
5.035400390625e-05
0.00012960682744565216
0.0001755822223165761
0.00020404318104619564
0.00022024403447690216
0.0002123625382133152
0.0001716414741847826
0.00011515741762907608
6.699271824048912e-05
2.977454144021739e-05
-1.751443614130435e-05
-8.450715438179348e-05
-0.0001475591244904891
-0.00017295505689538042
-0.00015500275985054347
-0.00011734672214673912
-8.275571076766304e-05
-5.1229725713315214e-05
-1.663871433423913e-05
1.4449409816576086e-05
3.240170686141304e-05
4.291036854619565e-05
5.998694378396739e-05
8.669645889945652e-05
0.00011209239130434782
0.00012654180112092392
0.00013529901919157608
0.00015237559442934782
0.00018258799677309782
0.0002071082073709239
0.00018652874490489128
8.932362432065217e-05
-8.231784986413044e-05
-0.00028460958729619563
-0.00044661812160326085
-0.0005004750127377717
-0.00042122218919836955
-0.0002513321586277174
-7.312277088994565e-05
4.641325577445652e-05
9.58915378736413e-05
9.58915378736413e-05
7.224704908288043e-05
3.8093898607336954e-05
3.065026324728261e-06
-2.057946246603261e-05
-1.926587975543478e-05
1.0946522588315217e-05
5.254330842391304e-05
7.881496263586956e-05
8.012854534646738e-05
6.699271824048912e-05
5.254330842391304e-05
4.0283203124999995e-05
2.714737601902174e-05
1.1822244395380435e-05
0.0
0.0
2.1455184273097826e-05
6.348983101222826e-05
0.0001112166694972826
0.00014449409816576087
0.00014405623726222825
0.00010333517323369564
3.459101137907609e-05
-3.896962041440217e-05
-9.676725968070652e-05
-0.00013092041015625
-0.00014230479364809781
-0.00013267185377038043
-0.00010464875594429347
-6.348983101222826e-05
-1.5325131623641304e-05
3.4153150475543474e-05
8.144212805706522e-05
0.00011734672214673912
0.0001313582710597826
0.00011734672214673912
7.837710173233695e-05
2.7585236922554347e-05
-1.970374065896739e-05
-5.0791864809782605e-05
-5.604619565217391e-05
-3.50288722826087e-05
-5.254330842391304e-06
8.757218070652174e-06
-1.7514436141304347e-06
-2.2330906080163042e-05
-3.1525985054347824e-05
-2.8023097826086955e-05
-3.5466733186141305e-05
-7.00577445652174e-05
-0.00011559527853260869
-0.00013529901919157608
-0.0001164710003396739
-8.363143257472826e-05
-6.918202275815218e-05
-7.399849269701087e-05
-6.918202275815218e-05
-2.933668053668478e-05
4.072106402853261e-05
0.00011515741762907608
0.00016463569972826087
0.0001707657523777174
0.00012741752292798914
4.8602560292119564e-05
-2.977454144021739e-05
-7.224704908288043e-05
-6.786844004755434e-05
-3.50288722826087e-05
-3.5028872282608694e-06
1.0070800781249999e-05
8.757218070652174e-06
2.1893045176630435e-06
-2.1893045176630435e-06
-6.130052649456522e-06
-1.1384383491847825e-05
-1.7952297044836957e-05
-2.4520210597826086e-05
-2.583379330842391e-05
-1.8828018851902173e-05
-1.0070800781249999e-05
-1.313582710597826e-05
-3.283956776494565e-05
-5.210544752038043e-05
-4.685111667798913e-05
-7.443635360054348e-06
4.8164699388586956e-05
9.501581606657609e-05
0.00012479035750679349
0.00014843484629755433
0.00016901430876358696
0.00016857644786005433
0.00013267185377038043
8.231784986413044e-05
5.5170473845108694e-05
5.298116932744565e-05
3.634245499320652e-05
-2.0141601562499998e-05
-9.10750679347826e-05
-0.0001414290718410326
-0.00017426863960597825
-0.0002167411472486413
-0.0002649058466372283
-0.00027585236922554346
-0.00022374692170516302
-0.00013529901919157608
-5.692191745923913e-05
0.0
5.648405655570652e-05
0.00011471955672554347
0.00013836404551630435
9.983228600543478e-05
2.627165421195652e-05
-2.5395932404891303e-05
-2.4082349694293478e-05
1.663871433423913e-05
6.699271824048912e-05
0.00010027014690896739
0.0001007080078125
6.348983101222826e-05
3.065026324728261e-06
-5.4732612941576086e-05
-8.888576341711956e-05
-9.326437245244564e-05
-8.100426715353261e-05
-7.268490998641304e-05
-7.268490998641304e-05
-6.130052649456522e-05
-1.5325131623641304e-05
5.429475203804348e-05
0.00010858950407608696
0.00010946522588315217
5.692191745923913e-05
-1.620085343070652e-05
-7.706351902173912e-05
-0.00011034094769021739
-0.00010771378226902174
-5.56083347486413e-05
4.1596785835597826e-05
0.00014493195906929346
0.0002018538765285326
0.00019528596297554347
0.00015106201171875
9.939442510190217e-05
5.0791864809782605e-05
4.816469938858695e-06
-3.327742866847826e-05
-5.166758661684782e-05
-4.1596785835597826e-05
-8.319357167119564e-06
3.634245499320652e-05
8.494501528532609e-05
0.00012172533118206522
0.00012479035750679349
8.625859799592391e-05
2.933668053668478e-05
-1.8828018851902173e-05
-6.480341372282608e-05
-0.00012829324473505435
-0.00019966457201086956
-0.00023425558338994564
-0.00019966457201086956
-0.00011253025220788043
-1.8390157948369565e-05
4.641325577445652e-05
7.969068444293477e-05
9.720512058423913e-05
0.00010946522588315217
0.00011034094769021739
9.10750679347826e-05
5.7359778362771735e-05
3.021240234375e-05
2.670951511548913e-05
4.55375339673913e-05
6.305197010869565e-05
4.947828209918478e-05
-7.005774456521739e-06
-8.713431980298913e-05
-0.00015106201171875
-0.0001720793350883152
-0.00015368917713994565
-0.00012041174847146739
-9.54536769701087e-05
-8.669645889945652e-05
-8.844790251358695e-05
-8.888576341711956e-05
-7.706351902173912e-05
-5.4732612941576086e-05
-3.327742866847826e-05
-2.670951511548913e-05
-3.1525985054347824e-05
-2.977454144021739e-05
-4.378609035326087e-06
4.0283203124999995e-05
8.53828761888587e-05
0.0001112166694972826
0.00011690886124320651
0.00011034094769021739
9.282651154891303e-05
5.648405655570652e-05
4.378609035326087e-06
-3.459101137907609e-05
-2.583379330842391e-05
3.678031589673913e-05
0.00011471955672554347
0.00015719206436820652
0.0001409912109375
8.100426715353261e-05
8.757218070652174e-07
-8.056640624999999e-05
-0.0001475591244904891
-0.00017952297044836955
-0.00015981922978940217
-8.801004161005434e-05
1.0070800781249999e-05
9.632939877717391e-05
0.0001366126019021739
0.00011909816576086957
5.867336107336956e-05
-1.1384383491847825e-05
-5.954908288043478e-05
-7.049560546875e-05
-5.035400390625e-05
-1.0508661684782609e-05
3.853175951086956e-05
8.012854534646738e-05
8.757218070652174e-05
4.772683848505435e-05
-2.0141601562499998e-05
-7.487421450407608e-05
-8.888576341711956e-05
-6.743057914402173e-05
-3.283956776494565e-05
-2.627165421195652e-06
1.2697966202445651e-05
8.319357167119564e-06
-7.881496263586956e-06
-1.663871433423913e-05
-8.757218070652174e-07
2.8898819633152172e-05
5.0791864809782605e-05
5.5170473845108694e-05
5.035400390625e-05
4.509967306385869e-05
3.678031589673913e-05
1.7952297044836957e-05
-9.195078974184782e-06
-3.3715289572010865e-05
-4.378609035326087e-05
-4.0283203124999995e-05
-2.8898819633152172e-05
-1.0508661684782609e-05
1.5762992527173912e-05
4.597539487092391e-05
6.874416185461957e-05
7.268490998641304e-05
5.56083347486413e-05
2.8898819633152172e-05
1.1822244395380435e-05
1.4011548913043478e-05
1.7952297044836957e-05
1.7514436141304347e-06
-2.8460958729619564e-05
-3.896962041440217e-05
-9.195078974184782e-06
4.0283203124999995e-05
7.618779721467391e-05
8.932362432065217e-05
9.414009425951087e-05
9.457795516304348e-05
6.918202275815218e-05
1.7514436141304347e-06
-9.151292883831521e-05
-0.0001720793350883152
-0.00020885965098505434
-0.00020010243291440218
-0.00016375997792119566
-0.00011997388756793478
-8.100426715353261e-05
-4.8602560292119564e-05
-2.320662788722826e-05
-9.195078974184782e-06
-1.4449409816576086e-05
-3.50288722826087e-05
-5.429475203804348e-05
-5.692191745923913e-05
-4.1596785835597826e-05
-8.319357167119564e-06
3.984534222146739e-05
8.888576341711956e-05
0.00010289731233016304
6.086266559103261e-05
-1.4011548913043478e-05
-7.137132727581522e-05
-8.319357167119565e-05
-7.049560546875e-05
-6.961988366168479e-05
-8.406929347826087e-05
-8.669645889945652e-05
-5.911122197690217e-05
-1.7076575237771737e-05
1.7952297044836957e-05
4.509967306385869e-05
7.312277088994565e-05
0.00010027014690896739
0.0001221631920855978
0.00014274265455163044
0.0001668250042459239
0.00018565302309782607
0.00018302585767663042
0.00014974842900815217
9.063720703124999e-05
2.276876698369565e-05
-3.5466733186141305e-05
-7.312277088994565e-05
-8.100426715353261e-05
-4.8602560292119564e-05
1.926587975543478e-05
9.238865064538043e-05
0.00012741752292798914
0.00010858950407608696
5.5170473845108694e-05
-5.6921917459239125e-06
-6.61169964334239e-05
-0.00012303891389266303
-0.00016069495159646739
-0.00015368917713994565
-9.063720703124999e-05
5.6921917459239125e-06
9.238865064538043e-05
0.00013267185377038043
0.00012041174847146739
6.961988366168479e-05
-1.7514436141304347e-06
-7.969068444293477e-05
-0.00014449409816576087
-0.00016989003057065217
-0.00013705046280570652
-5.254330842391304e-05
4.55375339673913e-05
0.00010946522588315217
0.00011559527853260869
8.012854534646738e-05
3.590459408967391e-05
0.0
-2.8460958729619564e-05
-4.334822944972826e-05
-2.714737601902174e-05
2.5395932404891303e-05
8.757218070652174e-05
0.00011953602666440217
0.00010640019955842391
6.61169964334239e-05
1.751443614130435e-05
-3.853175951086956e-05
-0.00010640019955842391
-0.00016463569972826087
-0.00017952297044836955
-0.00013967762822690217
-7.00577445652174e-05
-7.005774456521739e-06
3.459101137907609e-05
5.823550016983695e-05
6.61169964334239e-05
5.210544752038043e-05
1.5325131623641304e-05
-3.283956776494565e-05
-7.443635360054348e-05
-8.976148522418478e-05
-6.086266559103261e-05
2.057946246603261e-05
0.00012873110563858695
0.00019835098930027172
0.00017514436141304347
7.312277088994565e-05
-4.247250764266304e-05
-0.00012479035750679349
-0.00017820938773777174
-0.0002176168690557065
-0.00023031483525815216
-0.00019397238026494564
-0.00011734672214673912
-4.334822944972826e-05
-4.378609035326087e-06
3.940748131793478e-06
8.319357167119564e-06
2.1017323369565217e-05
3.5466733186141305e-05
4.2034646739130435e-05
4.4661812160326084e-05
4.991614300271739e-05
6.130052649456522e-05
7.356063179347826e-05
7.969068444293477e-05
7.268490998641304e-05
5.692191745923913e-05
4.904042119565217e-05
6.524127462635869e-05
0.00010027014690896739
0.00013092041015625
0.00014274265455163044
0.00013923976732336957
0.0001256660793138587
8.976148522418478e-05
1.7952297044836957e-05
-7.618779721467391e-05
-0.00015587848165760868
-0.0001909073539402174
-0.00018477730129076085
-0.00016069495159646739
-0.00013092041015625
-9.151292883831521e-05
-4.291036854619565e-05
-3.5028872282608694e-06
1.313582710597826e-05
1.926587975543478e-05
3.459101137907609e-05
5.867336107336956e-05
7.093346637228261e-05
6.173838739809782e-05
4.4661812160326084e-05
3.7656037703804346e-05
4.291036854619565e-05
4.947828209918478e-05
4.947828209918478e-05
4.8164699388586956e-05
5.385689113451087e-05
6.524127462635869e-05
7.356063179347826e-05
7.399849269701087e-05
7.57499363111413e-05
8.494501528532609e-05
9.676725968070652e-05
9.10750679347826e-05
4.4223951256793476e-05
-4.728897758152174e-05
-0.00015587848165760868
-0.00023337986158288043
-0.0002478292713994565
-0.00020535676375679348
-0.00013836404551630435
-7.925282353940217e-05
-4.291036854619565e-05
-2.627165421195652e-05
-1.7076575237771737e-05
-3.065026324728261e-06
2.1893045176630434e-05
5.035400390625e-05
6.217624830163043e-05
3.984534222146739e-05
-1.5762992527173912e-05
-7.662565811820652e-05
-0.00010289731233016304
-7.881496263586956e-05
-2.8898819633152172e-05
2.627165421195652e-06
0.0
-1.313582710597826e-05
-4.816469938858695e-06
2.583379330842391e-05
5.035400390625e-05
4.334822944972826e-05
1.0508661684782609e-05
-2.2330906080163042e-05
-3.5466733186141305e-05
-2.670951511548913e-05
-2.627165421195652e-06
3.021240234375e-05
6.61169964334239e-05
9.632939877717391e-05
0.0001112166694972826
0.00010245945142663043
6.830630095108695e-05
2.1017323369565217e-05
-1.7952297044836957e-05
-3.590459408967391e-05
-3.4153150475543474e-05
-1.8390157948369565e-05
9.63293987771739e-06
4.4223951256793476e-05
6.786844004755434e-05
6.699271824048912e-05
5.1229725713315214e-05
4.772683848505435e-05
6.874416185461957e-05
9.151292883831521e-05
8.275571076766304e-05
4.115892493206522e-05
-5.6921917459239125e-06
-3.940748131793478e-05
-7.399849269701087e-05
-0.00012916896654211957
-0.00020054029381793477
-0.00025395932404891303
-0.0002596515157948369
-0.00021323826002038042
-0.00013354757557744565
-4.4661812160326084e-05
3.721817680027174e-05
0.00010158372961956521
0.00013836404551630435
0.00014799698539402173
0.00013748832370923914
0.00011515741762907608
8.844790251358695e-05
6.56791355298913e-05
5.4732612941576086e-05
5.385689113451087e-05
5.0791864809782605e-05
3.940748131793478e-05
1.970374065896739e-05
-3.940748131793478e-06
-2.977454144021739e-05
-4.8602560292119564e-05
-4.685111667798913e-05
-2.5395932404891303e-05
-2.627165421195652e-06
2.627165421195652e-06
-7.881496263586956e-06
-2.057946246603261e-05
-2.1455184273097826e-05
-1.1384383491847825e-05
0.0
1.1822244395380435e-05
2.4520210597826086e-05
3.196384595788043e-05
2.2330906080163042e-05
-2.627165421195652e-06
-2.320662788722826e-05
-2.714737601902174e-05
-2.1893045176630434e-05
-2.276876698369565e-05
-2.714737601902174e-05
-2.2330906080163042e-05
-6.130052649456522e-06
1.0070800781249999e-05
1.4887270720108696e-05
3.5028872282608694e-06
-1.8828018851902173e-05
-3.940748131793478e-05
-4.1596785835597826e-05
-1.7076575237771737e-05
2.5395932404891303e-05
6.961988366168479e-05
0.00010377303413722825
0.0001261039402173913
0.00013573688009510868
0.00012391463569972824
7.750137992527173e-05
4.378609035326087e-07
-7.793924082880434e-05
-0.00012391463569972824
-0.00013048254925271738
-0.00012172533118206522
-0.00012260105298913043
-0.00013529901919157608
-0.00014318051545516303
-0.00012873110563858695
-8.319357167119565e-05
-1.0070800781249999e-05
7.662565811820652e-05
0.00015281345533288044
0.00018915591032608696
0.00016813858695652174
0.00010202159052309782
2.8898819633152172e-05
-1.4887270720108696e-05
-2.1017323369565217e-05
-1.2260105298913043e-05
-1.926587975543478e-05
-5.166758661684782e-05
-9.414009425951087e-05
-0.00011909816576086957
-0.00010771378226902174
-5.867336107336956e-05
1.1822244395380435e-05
7.750137992527173e-05
0.00010990308678668478
9.457795516304348e-05
3.634245499320652e-05
-3.896962041440217e-05
-9.414009425951087e-05
-9.983228600543478e-05
-5.56083347486413e-05
5.6921917459239125e-06
4.8602560292119564e-05
5.648405655570652e-05
4.1596785835597826e-05
2.1893045176630434e-05
4.378609035326087e-06
-1.1384383491847825e-05
-1.7076575237771737e-05
0.0
3.721817680027174e-05
6.348983101222826e-05
5.035400390625e-05
-8.757218070652174e-07
-6.261410920516304e-05
-0.00010464875594429347
-0.00011253025220788043
-9.151292883831521e-05
-5.867336107336956e-05
-3.50288722826087e-05
-3.1088124150815216e-05
-3.3715289572010865e-05
-1.751443614130435e-05
2.670951511548913e-05
7.793924082880434e-05
0.0001059623386548913
0.0001059623386548913
9.58915378736413e-05
9.10750679347826e-05
9.10750679347826e-05
9.063720703124999e-05
9.457795516304348e-05
0.00010245945142663043
0.00010245945142663043
7.662565811820652e-05
1.751443614130435e-05
-6.436555281929347e-05
-0.00014318051545516303
-0.00018390157948369563
-0.00016200853430706522
-8.801004161005434e-05
-7.005774456521739e-06
3.065026324728261e-05
9.195078974184782e-06
-4.509967306385869e-05
-9.370223335597826e-05
-0.00010727592136548913
-7.925282353940217e-05
-2.0141601562499998e-05
3.853175951086956e-05
6.392769191576087e-05
4.2034646739130435e-05
-3.065026324728261e-06
-3.721817680027174e-05
-4.4661812160326084e-05
-3.8093898607336954e-05
-3.327742866847826e-05
-3.021240234375e-05
-2.1017323369565217e-05
-6.56791355298913e-06
5.6921917459239125e-06
1.5762992527173912e-05
2.583379330842391e-05
3.50288722826087e-05
3.896962041440217e-05
3.8093898607336954e-05
3.853175951086956e-05
4.1596785835597826e-05
3.940748131793478e-05
3.1525985054347824e-05
3.283956776494565e-05
6.480341372282608e-05
0.00012873110563858695
0.00019134521484375
0.00020272959833559783
0.00013267185377038043
-2.1893045176630435e-06
-0.00014843484629755433
-0.00024563996688179346
-0.00026008937669836957
-0.0002009781547214674
-0.00011034094769021739
-3.065026324728261e-05
2.1455184273097826e-05
5.254330842391304e-05
7.356063179347826e-05
8.406929347826087e-05
7.531207540760869e-05
4.247250764266304e-05
-6.56791355298913e-06
-5.1229725713315214e-05
-7.662565811820652e-05
-8.669645889945652e-05
-9.151292883831521e-05
-8.888576341711956e-05
-6.961988366168479e-05
-3.459101137907609e-05
1.313582710597826e-06
2.627165421195652e-05
3.940748131793478e-05
4.4661812160326084e-05
4.685111667798913e-05
4.685111667798913e-05
4.334822944972826e-05
3.634245499320652e-05
3.1525985054347824e-05
3.590459408967391e-05
4.991614300271739e-05
6.830630095108695e-05
8.187998896059783e-05
8.275571076766304e-05
6.743057914402173e-05
3.984534222146739e-05
9.195078974184782e-06
-2.1455184273097826e-05
-5.604619565217391e-05
-9.326437245244564e-05
-0.00012347677479619565
-0.00013573688009510868
-0.00012697966202445651
-0.00010202159052309782
-6.743057914402173e-05
-2.8898819633152172e-05
9.63293987771739e-06
4.55375339673913e-05
6.961988366168479e-05
6.874416185461957e-05
3.7656037703804346e-05
-9.195078974184782e-06
-4.685111667798913e-05
-5.56083347486413e-05
-3.240170686141304e-05
7.881496263586956e-06
5.166758661684782e-05
8.58207370923913e-05
9.939442510190217e-05
8.450715438179348e-05
4.728897758152174e-05
6.56791355298913e-06
-2.0141601562499998e-05
-3.240170686141304e-05
-4.334822944972826e-05
-6.655485733695651e-05
-0.00010377303413722825
-0.0001401154891304348
-0.00015368917713994565
-0.00013398543648097824
-9.151292883831521e-05
-4.115892493206522e-05
1.0946522588315217e-05
6.305197010869565e-05
0.00010333517323369564
0.00011515741762907608
9.720512058423913e-05
6.918202275815218e-05
4.947828209918478e-05
3.196384595788043e-05
-3.065026324728261e-06
-5.911122197690217e-05
-0.00010552447775135868
-0.00011209239130434782
-7.969068444293477e-05
-2.977454144021739e-05
2.4520210597826086e-05
8.187998896059783e-05
0.00012741752292798914
0.0001313582710597826
8.144212805706522e-05
3.5028872282608694e-06
-5.867336107336956e-05
-7.881496263586956e-05
-6.261410920516304e-05
-3.021240234375e-05
8.757218070652174e-07
2.364448879076087e-05
3.196384595788043e-05
2.5395932404891303e-05
1.0508661684782609e-05
-8.757218070652174e-07
-8.757218070652174e-07
1.2697966202445651e-05
3.8093898607336954e-05
6.524127462635869e-05
7.969068444293477e-05
7.312277088994565e-05
5.1229725713315214e-05
2.977454144021739e-05
2.2330906080163042e-05
2.4520210597826086e-05
1.926587975543478e-05
-3.5028872282608694e-06
-3.1525985054347824e-05
-4.291036854619565e-05
-3.678031589673913e-05
-3.3715289572010865e-05
-4.8602560292119564e-05
-7.093346637228261e-05
-8.231784986413044e-05
-7.706351902173912e-05
-5.998694378396739e-05
-3.3715289572010865e-05
3.065026324728261e-06
3.721817680027174e-05
4.0283203124999995e-05
-7.443635360054348e-06
-9.632939877717391e-05
-0.00018740446671195653
-0.0002320662788722826
-0.0002009781547214674
-0.00010158372961956521
2.1017323369565217e-05
0.00012172533118206522
0.00018521516219429347
0.0002224333389945652
0.00023863419242527173
0.0002163032863451087
0.0001409912109375
3.4153150475543474e-05
-5.4732612941576086e-05
-8.406929347826087e-05
-5.341903023097826e-05
1.7514436141304347e-06
4.291036854619565e-05
5.210544752038043e-05
3.7656037703804346e-05
1.7952297044836957e-05
1.0508661684782609e-05
2.320662788722826e-05
5.4732612941576086e-05
9.720512058423913e-05
0.00012829324473505435
0.00012303891389266303
7.443635360054348e-05
8.319357167119564e-06
-3.5466733186141305e-05
-4.1596785835597826e-05
-2.4082349694293478e-05
-6.56791355298913e-06
4.378609035326087e-07
3.5028872282608694e-06
7.443635360054348e-06
7.443635360054348e-06
-5.254330842391304e-06
-2.7585236922554347e-05
-4.8164699388586956e-05
-6.173838739809782e-05
-7.487421450407608e-05
-9.370223335597826e-05
-0.0001160331394361413
-0.0001322339928668478
-0.00012916896654211957
-0.00010333517323369564
-6.392769191576087e-05
-2.7585236922554347e-05
-8.319357167119564e-06
-6.130052649456522e-06
-1.313582710597826e-05
-1.8390157948369565e-05
-1.7076575237771737e-05
-1.4011548913043478e-05
-1.7952297044836957e-05
-2.276876698369565e-05
-3.940748131793478e-06
5.1229725713315214e-05
0.00012347677479619565
0.0001707657523777174
0.00017032789147418477
0.00013048254925271738
7.137132727581522e-05
2.627165421195652e-06
-7.224704908288043e-05
-0.00013923976732336957
-0.00017339291779891304
-0.00015894350798233695
-0.0001059623386548913
-3.7656037703804346e-05
2.4958071501358695e-05
7.487421450407608e-05
0.00010552447775135868
0.00011165453040081521
9.282651154891303e-05
5.998694378396739e-05
3.021240234375e-05
1.2260105298913043e-05
0.0
-1.5325131623641304e-05
-3.678031589673913e-05
-5.254330842391304e-05
-5.210544752038043e-05
-3.3715289572010865e-05
-9.195078974184782e-06
4.816469938858695e-06
-1.313582710597826e-06
-2.583379330842391e-05
-5.385689113451087e-05
-6.436555281929347e-05
-4.904042119565217e-05
-1.4011548913043478e-05
2.5395932404891303e-05
5.954908288043478e-05
8.669645889945652e-05
0.00010377303413722825
9.632939877717391e-05
5.166758661684782e-05
-1.926587975543478e-05
-8.056640624999999e-05
-9.808084239130435e-05
-7.399849269701087e-05
-3.7656037703804346e-05
-8.757218070652174e-06
1.663871433423913e-05
4.291036854619565e-05
5.4732612941576086e-05
3.3715289572010865e-05
-1.4887270720108696e-05
-5.911122197690217e-05
-6.086266559103261e-05
-7.881496263586956e-06
7.443635360054348e-05
0.00014843484629755433
0.00018346371858016304
0.00017251719599184782
0.00012785538383152173
7.137132727581522e-05
2.0141601562499998e-05
-2.4958071501358695e-05
-6.743057914402173e-05
-0.00010289731233016304
-0.0001256660793138587
-0.0001409912109375
-0.00016113281249999998
-0.00017908510954483696
-0.00016813858695652174
-0.00010815164317255435
-1.2697966202445651e-05
7.399849269701087e-05
0.00011822244395380434
0.00011778458305027173
9.808084239130435e-05
8.012854534646738e-05
7.049560546875e-05
6.699271824048912e-05
6.392769191576087e-05
4.947828209918478e-05
1.1822244395380435e-05
-4.509967306385869e-05
-9.720512058423913e-05
-0.00011253025220788043
-7.706351902173912e-05
-6.130052649456522e-06
6.655485733695651e-05
0.00010858950407608696
0.00010683806046195652
7.093346637228261e-05
1.970374065896739e-05
-3.634245499320652e-05
-9.370223335597826e-05
-0.0001409912109375
-0.00016025709069293476
-0.0001414290718410326
-9.808084239130435e-05
-5.867336107336956e-05
-3.853175951086956e-05
-2.8460958729619564e-05
-1.0946522588315217e-05
2.057946246603261e-05
6.086266559103261e-05
9.676725968070652e-05
0.00011997388756793478
0.0001256660793138587
0.00011340597401494565
8.319357167119565e-05
3.240170686141304e-05
-3.283956776494565e-05
-9.238865064538043e-05
-0.00011909816576086957
-0.0001011458687160326
-5.035400390625e-05
1.1822244395380435e-05
7.268490998641304e-05
0.00012041174847146739
0.00013880190641983695
0.00011778458305027173
7.137132727581522e-05
3.065026324728261e-05
1.8390157948369565e-05
2.7585236922554347e-05
3.50288722826087e-05
2.276876698369565e-05
-4.816469938858695e-06
-3.065026324728261e-05
-3.590459408967391e-05
-2.2330906080163042e-05
-4.378609035326087e-06
7.005774456521739e-06
1.8828018851902173e-05
3.853175951086956e-05
5.429475203804348e-05
4.291036854619565e-05
-5.6921917459239125e-06
-7.137132727581522e-05
-0.00011997388756793478
-0.00013923976732336957
-0.00014449409816576087
-0.00015368917713994565
-0.00016770072605298912
-0.00017032789147418477
-0.00014843484629755433
-0.00010421089504076086
-5.7359778362771735e-05
-2.714737601902174e-05
-1.4887270720108696e-05
-3.5028872282608694e-06
2.276876698369565e-05
6.305197010869565e-05
9.983228600543478e-05
0.00011909816576086957
0.00011866030485733696
0.00010027014690896739
6.392769191576087e-05
1.4449409816576086e-05
-3.634245499320652e-05
-7.662565811820652e-05
-9.939442510190217e-05
-0.00010202159052309782
-8.406929347826087e-05
-4.8602560292119564e-05
-7.881496263586956e-06
1.663871433423913e-05
1.4449409816576086e-05
-5.6921917459239125e-06
-2.670951511548913e-05
-3.590459408967391e-05
-2.8898819633152172e-05
-1.7514436141304347e-06
4.55375339673913e-05
0.00010771378226902174
0.00017295505689538042
0.00023425558338994564
0.0002832960045855978
0.0003104433806046195
0.00030650263247282607
0.00027016017747961957
0.0002071082073709239
0.00011909816576086957
3.940748131793478e-06
-0.00012916896654211957
-0.0002473914104959239
-0.00030912979789402174
-0.0002933668053668478
-0.00021849259086277172
-0.00012391463569972824
-4.378609035326087e-05
4.816469938858695e-06
2.4520210597826086e-05
2.8023097826086955e-05
3.021240234375e-05
3.50288722826087e-05
2.4958071501358695e-05
-2.5395932404891303e-05
-0.0001164710003396739
-0.00020798392917798913
-0.00024958071501358697
-0.0002219954780910326
-0.00014230479364809781
-4.115892493206522e-05
5.692191745923913e-05
0.00013486115828804346
0.00017996083135190217
0.0001860908840013587
0.0001554406207540761
9.895656419836956e-05
3.021240234375e-05
-3.3715289572010865e-05
-7.618779721467391e-05
-8.187998896059783e-05
-5.298116932744565e-05
-1.2697966202445651e-05
1.1384383491847825e-05
1.4011548913043478e-05
1.0508661684782609e-05
1.5325131623641304e-05
2.583379330842391e-05
3.50288722826087e-05
4.072106402853261e-05
4.641325577445652e-05
5.0791864809782605e-05
4.641325577445652e-05
3.283956776494565e-05
2.057946246603261e-05
1.926587975543478e-05
1.663871433423913e-05
-1.751443614130435e-05
-9.58915378736413e-05
-0.00018346371858016304
-0.00022418478260869564
-0.00018915591032608696
-9.808084239130435e-05
4.378609035326087e-06
8.976148522418478e-05
0.0001514998726222826
0.00018959377122961955
0.00019791312839673912
0.0001707657523777174
0.00011559527853260869
4.8164699388586956e-05
-2.0141601562499998e-05
-8.494501528532609e-05
-0.00013923976732336957
-0.00016989003057065217
-0.00016770072605298912
-0.00013748832370923914
-9.58915378736413e-05
-5.7797639266304343e-05
-3.1088124150815216e-05
-1.2260105298913043e-05
4.378609035326087e-06
2.5395932404891303e-05
4.947828209918478e-05
6.918202275815218e-05
7.356063179347826e-05
5.692191745923913e-05
2.5395932404891303e-05
-3.5028872282608694e-06
-1.663871433423913e-05
-8.319357167119564e-06
1.8828018851902173e-05
5.298116932744565e-05
7.356063179347826e-05
6.830630095108695e-05
4.685111667798913e-05
3.065026324728261e-05
2.933668053668478e-05
3.7656037703804346e-05
5.035400390625e-05
6.961988366168479e-05
8.844790251358695e-05
8.801004161005434e-05
5.5170473845108694e-05
1.7514436141304347e-06
-4.4223951256793476e-05
-6.61169964334239e-05
-7.356063179347826e-05
-9.238865064538043e-05
-0.00012829324473505435
-0.00015981922978940217
-0.0001615706734035326
-0.00013310971467391303
-9.457795516304348e-05
-6.348983101222826e-05
-3.940748131793478e-05
-1.357368800951087e-05
1.751443614130435e-05
4.685111667798913e-05
6.392769191576087e-05
6.61169964334239e-05
5.954908288043478e-05
4.947828209918478e-05
3.4153150475543474e-05
1.1384383491847825e-05
-1.1822244395380435e-05
-2.276876698369565e-05
-1.357368800951087e-05
8.319357167119564e-06
3.196384595788043e-05
4.728897758152174e-05
4.4661812160326084e-05
1.7952297044836957e-05
-2.627165421195652e-05
-7.00577445652174e-05
-9.414009425951087e-05
-9.063720703124999e-05
-7.00577445652174e-05
-5.341903023097826e-05
-6.130052649456522e-05
-9.457795516304348e-05
-0.00012960682744565216
-0.00013573688009510868
-9.414009425951087e-05
-8.757218070652174e-06
9.501581606657609e-05
0.00018039869225543477
0.00021542756453804348
0.00018828018851902174
0.00011165453040081521
1.5762992527173912e-05
-6.261410920516304e-05
-9.983228600543478e-05
-9.151292883831521e-05
-5.5170473845108694e-05
-1.0508661684782609e-05
3.240170686141304e-05
7.399849269701087e-05
0.00011340597401494565
0.00014580768087635868
0.0001663871433423913
0.00017339291779891304
0.00016244639521059782
0.00012654180112092392
6.56791355298913e-05
-1.7514436141304347e-06
-5.385689113451087e-05
-8.363143257472826e-05
-0.00010377303413722825
-0.0001261039402173913
-0.00014449409816576087
-0.0001414290718410326
-0.00011253025220788043
-7.224704908288043e-05
-3.590459408967391e-05
-5.6921917459239125e-06
2.5395932404891303e-05
5.254330842391304e-05
6.217624830163043e-05
4.991614300271739e-05
2.583379330842391e-05
-1.7514436141304347e-06
-3.50288722826087e-05
-7.399849269701087e-05
-0.00011034094769021739
-0.00012960682744565216
-0.0001160331394361413
-6.436555281929347e-05
1.0946522588315217e-05
7.793924082880434e-05
0.00010771378226902174
9.282651154891303e-05
4.4661812160326084e-05
-2.057946246603261e-05
-8.932362432065217e-05
-0.00014580768087635868
-0.00017426863960597825
-0.0001655114215353261
-0.00012260105298913043
-6.173838739809782e-05
-5.254330842391304e-06
3.065026324728261e-05
4.8602560292119564e-05
6.173838739809782e-05
7.969068444293477e-05
0.00010245945142663043
0.00012347677479619565
0.00013705046280570652
0.00014230479364809781
0.00014186693274456522
0.0001366126019021739
0.00012522821841032608
0.00010902736497961956
8.844790251358695e-05
5.56083347486413e-05
3.065026324728261e-06
-5.7359778362771735e-05
-0.00010158372961956521
-0.00011165453040081521
-9.720512058423913e-05
-8.275571076766304e-05
-8.056640624999999e-05
-8.319357167119565e-05
-7.531207540760869e-05
-4.8602560292119564e-05
-5.6921917459239125e-06
4.291036854619565e-05
8.888576341711956e-05
0.00012172533118206522
0.00013310971467391303
0.00011296811311141304
5.7359778362771735e-05
-2.1893045176630434e-05
-9.808084239130435e-05
-0.00014361837635869565
-0.00015456489894701087
-0.00014580768087635868
-0.00013573688009510868
-0.00012785538383152173
-0.00011077880859375
-7.57499363111413e-05
-3.459101137907609e-05
-1.357368800951087e-05
-2.8460958729619564e-05
-6.61169964334239e-05
-8.888576341711956e-05
-6.348983101222826e-05
1.751443614130435e-05
0.00012785538383152173
0.0002219954780910326
0.00026140295940896735
0.0002320662788722826
0.00014318051545516303
2.7585236922554347e-05
-7.049560546875e-05
-0.00011690886124320651
-0.00011034094769021739
-7.837710173233695e-05
-4.991614300271739e-05
-3.4153150475543474e-05
-2.583379330842391e-05
-2.057946246603261e-05
-1.8828018851902173e-05
-1.926587975543478e-05
-2.0141601562499998e-05
-1.926587975543478e-05
-1.2697966202445651e-05
8.319357167119564e-06
5.166758661684782e-05
0.00010683806046195652
0.0001466834026834239
0.00014843484629755433
0.00011384383491847825
6.655485733695651e-05
3.1088124150815216e-05
1.4449409816576086e-05
6.130052649456522e-06
-3.940748131793478e-06
-1.7952297044836957e-05
-3.327742866847826e-05
-4.509967306385869e-05
-4.509967306385869e-05
-1.926587975543478e-05
3.1088124150815216e-05
8.58207370923913e-05
0.00011428169582201086
0.00010552447775135868
7.049560546875e-05
2.320662788722826e-05
-3.459101137907609e-05
-0.00010421089504076086
-0.00016770072605298912
-0.00019484810207201085
-0.00016857644786005433
-0.00010552447775135868
-3.8093898607336954e-05
1.1822244395380435e-05
4.247250764266304e-05
5.385689113451087e-05
4.378609035326087e-05
1.8828018851902173e-05
-4.378609035326087e-06
-1.1822244395380435e-05
-1.7514436141304347e-06
1.357368800951087e-05
2.276876698369565e-05
2.1455184273097826e-05
1.4449409816576086e-05
3.065026324728261e-06
-1.4887270720108696e-05
-3.853175951086956e-05
-5.648405655570652e-05
-5.692191745923913e-05
-3.4153150475543474e-05
3.065026324728261e-06
3.7656037703804346e-05
5.0791864809782605e-05
3.8093898607336954e-05
1.0508661684782609e-05
-1.4449409816576086e-05
-2.8460958729619564e-05
-3.590459408967391e-05
-4.4661812160326084e-05
-5.4732612941576086e-05
-5.7359778362771735e-05
-4.685111667798913e-05
-2.7585236922554347e-05
-7.881496263586956e-06
1.2260105298913043e-05
4.072106402853261e-05
8.187998896059783e-05
0.00012829324473505435
0.00016770072605298912
0.0001922209366508152
0.00019878885020380434
0.00017864724864130434
0.00011778458305027173
1.4449409816576086e-05
-0.00010946522588315217
-0.00021805472995923913
-0.0002767280910326087
-0.00026928445567255433
-0.00020404318104619564
-0.00010902736497961956
-1.5325131623641304e-05
5.954908288043478e-05
0.00011471955672554347
0.00015062415081521738
0.00016375997792119566
0.00014712126358695652
9.676725968070652e-05
1.8390157948369565e-05
-7.00577445652174e-05
-0.00014843484629755433
-0.0001961616847826087
-0.00019528596297554347
-0.00013923976732336957
-4.2034646739130435e-05
5.998694378396739e-05
0.00012785538383152173
0.00014361837635869565
0.00012435249660326086
9.895656419836956e-05
8.187998896059783e-05
6.305197010869565e-05
2.933668053668478e-05
-1.4449409816576086e-05
-4.772683848505435e-05
-5.7359778362771735e-05
-4.991614300271739e-05
-3.8093898607336954e-05
-2.1893045176630434e-05
3.065026324728261e-06
3.678031589673913e-05
6.305197010869565e-05
6.480341372282608e-05
3.50288722826087e-05
-1.0946522588315217e-05
-4.2034646739130435e-05
-3.1525985054347824e-05
2.0141601562499998e-05
8.494501528532609e-05
0.00012522821841032608
0.000120849609375
7.881496263586956e-05
1.970374065896739e-05
-4.072106402853261e-05
-0.00010027014690896739
-0.00015193773352581522
-0.00018039869225543477
-0.00017295505689538042
-0.00013442329738451087
-8.100426715353261e-05
-2.8460958729619564e-05
1.2260105298913043e-05
3.634245499320652e-05
4.2034646739130435e-05
3.1088124150815216e-05
9.63293987771739e-06
-1.0508661684782609e-05
-2.4958071501358695e-05
-3.3715289572010865e-05
-3.940748131793478e-05
-3.3715289572010865e-05
-3.5028872282608694e-06
5.035400390625e-05
0.00010552447775135868
0.0001322339928668478
0.00011734672214673912
7.57499363111413e-05
3.021240234375e-05
-7.443635360054348e-06
-4.247250764266304e-05
-7.180918817934783e-05
-8.187998896059783e-05
-6.56791355298913e-05
-3.678031589673913e-05
-1.663871433423913e-05
-1.1822244395380435e-05
-1.5762992527173912e-05
-2.627165421195652e-05
-4.772683848505435e-05
-7.750137992527173e-05
-9.895656419836956e-05
-9.063720703124999e-05
-4.4661812160326084e-05
2.583379330842391e-05
9.676725968070652e-05
0.0001401154891304348
0.00013923976732336957
9.764298148777174e-05
4.291036854619565e-05
4.378609035326087e-06
-8.319357167119564e-06
-9.63293987771739e-06
-7.443635360054348e-06
4.816469938858695e-06
3.065026324728261e-05
5.648405655570652e-05
6.130052649456522e-05
3.7656037703804346e-05
-3.5028872282608694e-06
-4.728897758152174e-05
-8.319357167119565e-05
-0.00010333517323369564
-0.0001007080078125
-7.312277088994565e-05
-2.670951511548913e-05
2.320662788722826e-05
6.480341372282608e-05
9.151292883831521e-05
0.0001007080078125
9.063720703124999e-05
6.436555281929347e-05
3.50288722826087e-05
1.751443614130435e-05
1.7952297044836957e-05
2.7585236922554347e-05
3.50288722826087e-05
3.459101137907609e-05
2.5395932404891303e-05
7.881496263586956e-06
-1.4011548913043478e-05
-3.590459408967391e-05
-4.947828209918478e-05
-5.1229725713315214e-05
-4.247250764266304e-05
-3.1088124150815216e-05
-2.4082349694293478e-05
-2.0141601562499998e-05
-1.4887270720108696e-05
-7.443635360054348e-06
-2.627165421195652e-06
-5.254330842391304e-06
-1.8828018851902173e-05
-3.896962041440217e-05
-5.385689113451087e-05
-5.604619565217391e-05
-4.947828209918478e-05
-4.291036854619565e-05
-3.984534222146739e-05
-3.240170686141304e-05
-1.0070800781249999e-05
3.5466733186141305e-05
9.764298148777174e-05
0.0001501862899116848
0.00016726286514945652
0.00014405623726222825
9.720512058423913e-05
4.728897758152174e-05
5.254330842391304e-06
-2.670951511548913e-05
-5.298116932744565e-05
-7.531207540760869e-05
-8.801004161005434e-05
-8.187998896059783e-05
-5.254330842391304e-05
-1.357368800951087e-05
1.1384383491847825e-05
7.881496263586956e-06
-1.8390157948369565e-05
-4.334822944972826e-05
-4.378609035326087e-05
-1.5325131623641304e-05
2.4082349694293478e-05
5.4732612941576086e-05
6.261410920516304e-05
4.55375339673913e-05
1.2260105298913043e-05
-1.8390157948369565e-05
-2.5395932404891303e-05
-4.378609035326087e-07
4.597539487092391e-05
9.764298148777174e-05
0.0001414290718410326
0.00016989003057065217
0.0001755822223165761
0.00015281345533288044
0.0001059623386548913
4.509967306385869e-05
-2.0141601562499998e-05
-8.757218070652174e-05
-0.00015062415081521738
-0.00019572382387907607
-0.0002075460682744565
-0.00018390157948369563
-0.0001401154891304348
-9.983228600543478e-05
-7.224704908288043e-05
-4.904042119565217e-05
-1.970374065896739e-05
1.5325131623641304e-05
4.641325577445652e-05
6.392769191576087e-05
6.699271824048912e-05
6.04248046875e-05
5.166758661684782e-05
4.55375339673913e-05
4.597539487092391e-05
5.254330842391304e-05
5.954908288043478e-05
5.692191745923913e-05
2.8898819633152172e-05
-3.1088124150815216e-05
-0.00011165453040081521
-0.00017777152683423912
-0.00019484810207201085
-0.00015806778617527174
-9.808084239130435e-05
-5.166758661684782e-05
-3.196384595788043e-05
-3.3715289572010865e-05
-4.291036854619565e-05
-4.4223951256793476e-05
-2.627165421195652e-05
1.1384383491847825e-05
5.954908288043478e-05
0.0001007080078125
0.00012785538383152173
0.00014274265455163044
0.00014712126358695652
0.00013354757557744565
9.501581606657609e-05
4.2034646739130435e-05
-3.065026324728261e-06
-3.021240234375e-05
-4.8164699388586956e-05
-6.699271824048912e-05
-8.450715438179348e-05
-8.801004161005434e-05
-6.918202275815218e-05
-2.4958071501358695e-05
3.940748131793478e-05
0.00011209239130434782
0.00017032789147418477
0.00019835098930027172
0.00019484810207201085
0.00016113281249999998
9.282651154891303e-05
-1.1822244395380435e-05
-0.00013310971467391303
-0.00023031483525815216
-0.00026403012483016303
-0.00022462264351222826
-0.0001313582710597826
-2.4082349694293478e-05
5.56083347486413e-05
7.969068444293477e-05
4.947828209918478e-05
3.5028872282608694e-06
-7.881496263586956e-06
2.8460958729619564e-05
7.750137992527173e-05
8.801004161005434e-05
4.4661812160326084e-05
-1.7076575237771737e-05
-5.1229725713315214e-05
-4.378609035326087e-05
-2.1893045176630434e-05
-1.4887270720108696e-05
-2.364448879076087e-05
-3.021240234375e-05
-2.714737601902174e-05
-2.4082349694293478e-05
-3.283956776494565e-05
-5.210544752038043e-05
-6.786844004755434e-05
-6.830630095108695e-05
-5.341903023097826e-05
-3.50288722826087e-05
-2.5395932404891303e-05
-2.670951511548913e-05
-2.714737601902174e-05
-7.881496263586956e-06
4.378609035326087e-05
0.00011690886124320651
0.00017426863960597825
0.00018565302309782607
0.00015719206436820652
0.00012260105298913043
9.720512058423913e-05
6.480341372282608e-05
9.195078974184782e-06
-5.429475203804348e-05
-9.808084239130435e-05
-0.00011253025220788043
-0.00011253025220788043
-0.00011340597401494565
-0.00011077880859375
-8.801004161005434e-05
-3.721817680027174e-05
2.4082349694293478e-05
6.699271824048912e-05
7.618779721467391e-05
6.130052649456522e-05
4.4223951256793476e-05
3.853175951086956e-05
4.291036854619565e-05
4.4223951256793476e-05
2.670951511548913e-05
-1.0946522588315217e-05
-5.5170473845108694e-05
-8.58207370923913e-05
-8.757218070652174e-05
-5.254330842391304e-05
1.2260105298913043e-05
8.100426715353261e-05
0.00012041174847146739
0.00011559527853260869
7.793924082880434e-05
3.327742866847826e-05
2.1893045176630435e-06
-1.1822244395380435e-05
-2.1017323369565217e-05
-3.5466733186141305e-05
-5.56083347486413e-05
-7.180918817934783e-05
-7.180918817934783e-05
-5.1229725713315214e-05
-1.8828018851902173e-05
1.2260105298913043e-05
3.940748131793478e-05
6.743057914402173e-05
9.58915378736413e-05
0.00011165453040081521
0.00010421089504076086
8.056640624999999e-05
5.341903023097826e-05
2.627165421195652e-05
-6.56791355298913e-06
-4.334822944972826e-05
-7.049560546875e-05
-7.837710173233695e-05
-7.312277088994565e-05
-7.180918817934783e-05
-8.187998896059783e-05
-9.764298148777174e-05
-0.00010683806046195652
-0.00010333517323369564
-8.976148522418478e-05
-6.786844004755434e-05
-3.853175951086956e-05
-7.005774456521739e-06
1.8390157948369565e-05
3.3715289572010865e-05
4.247250764266304e-05
5.1229725713315214e-05
6.480341372282608e-05
8.406929347826087e-05
9.939442510190217e-05
9.632939877717391e-05
7.531207540760869e-05
5.7797639266304343e-05
6.655485733695651e-05
9.414009425951087e-05
0.00011428169582201086
0.00011340597401494565
9.457795516304348e-05
5.4732612941576086e-05
-2.057946246603261e-05
-0.00012741752292798914
-0.00022462264351222826
-0.0002666572902513587
-0.00024345066236413043
-0.0001869666058084239
-0.00013398543648097824
-9.151292883831521e-05
-4.247250764266304e-05
2.057946246603261e-05
7.969068444293477e-05
0.00011034094769021739
0.00010771378226902174
8.669645889945652e-05
5.911122197690217e-05
3.021240234375e-05
5.254330842391304e-06
-8.757218070652174e-06
-7.881496263586956e-06
0.0
0.0
-2.320662788722826e-05
-5.648405655570652e-05
-6.786844004755434e-05
-3.853175951086956e-05
1.2260105298913043e-05
4.641325577445652e-05
4.4223951256793476e-05
1.970374065896739e-05
-2.1893045176630435e-06
-8.757218070652174e-06
-1.313582710597826e-06
9.63293987771739e-06
1.5762992527173912e-05
8.319357167119564e-06
-1.8390157948369565e-05
-5.954908288043478e-05
-8.976148522418478e-05
-7.925282353940217e-05
-1.7952297044836957e-05
7.662565811820652e-05
0.00017120361328124998
0.0002325041397758152
0.00024257494055706521
0.00020448104194972826
0.0001414290718410326
7.531207540760869e-05
1.4011548913043478e-05
-4.2034646739130435e-05
-8.494501528532609e-05
-0.00010377303413722825
-0.00010245945142663043
-9.414009425951087e-05
-8.363143257472826e-05
-6.261410920516304e-05
-3.021240234375e-05
-3.940748131793478e-06
-1.7514436141304347e-06
-1.7952297044836957e-05
-2.8460958729619564e-05
-2.714737601902174e-05
-3.283956776494565e-05
-5.254330842391304e-05
-6.305197010869565e-05
-3.459101137907609e-05
2.670951511548913e-05
8.406929347826087e-05
0.00010245945142663043
8.319357167119565e-05
5.5170473845108694e-05
4.2034646739130435e-05
4.0283203124999995e-05
2.8898819633152172e-05
0.0
-3.4153150475543474e-05
-5.385689113451087e-05
-5.1229725713315214e-05
-4.072106402853261e-05
-4.1596785835597826e-05
-5.385689113451087e-05
-5.954908288043478e-05
-4.8164699388586956e-05
-3.4153150475543474e-05
-3.590459408967391e-05
-4.8602560292119564e-05
-4.991614300271739e-05
-2.8898819633152172e-05
3.065026324728261e-06
2.977454144021739e-05
4.291036854619565e-05
4.1596785835597826e-05
2.8460958729619564e-05
8.757218070652174e-06
-9.195078974184782e-06
-2.057946246603261e-05
-2.583379330842391e-05
-2.8023097826086955e-05
-2.5395932404891303e-05
-1.1822244395380435e-05
1.7076575237771737e-05
5.7359778362771735e-05
9.54536769701087e-05
0.00011209239130434782
9.282651154891303e-05
3.721817680027174e-05
-3.5466733186141305e-05
-9.414009425951087e-05
-0.00010640019955842391
-6.392769191576087e-05
6.130052649456522e-06
6.086266559103261e-05
7.706351902173912e-05
6.524127462635869e-05
4.55375339673913e-05
1.751443614130435e-05
-3.1525985054347824e-05
-9.983228600543478e-05
-0.00016025709069293476
-0.00018740446671195653
-0.00017426863960597825
-0.00012829324473505435
-5.7797639266304343e-05
2.583379330842391e-05
0.00010552447775135868
0.00015938136888586955
0.00017777152683423912
0.0001663871433423913
0.0001414290718410326
0.00011428169582201086
8.450715438179348e-05
4.8164699388586956e-05
3.940748131793478e-06
-4.1596785835597826e-05
-7.793924082880434e-05
-9.370223335597826e-05
-8.757218070652174e-05
-6.961988366168479e-05
-4.597539487092391e-05
-1.1384383491847825e-05
3.721817680027174e-05
8.801004161005434e-05
0.0001112166694972826
8.494501528532609e-05
1.5762992527173912e-05
-6.56791355298913e-05
-0.00012829324473505435
-0.0001554406207540761
-0.00014974842900815217
-0.00012391463569972824
-9.370223335597826e-05
-7.00577445652174e-05
-5.692191745923913e-05
-5.604619565217391e-05
-6.830630095108695e-05
-7.925282353940217e-05
-6.392769191576087e-05
-1.313582710597826e-05
5.298116932744565e-05
0.00010421089504076086
0.00012785538383152173
0.00013004468834918478
0.00011559527853260869
8.187998896059783e-05
3.021240234375e-05
-2.670951511548913e-05
-6.961988366168479e-05
-8.757218070652174e-05
-8.275571076766304e-05
-6.086266559103261e-05
-2.276876698369565e-05
3.1088124150815216e-05
9.019934612771738e-05
0.00013004468834918478
0.00012916896654211957
8.625859799592391e-05
2.320662788722826e-05
-2.5395932404891303e-05
-3.5466733186141305e-05
-9.195078974184782e-06
2.8460958729619564e-05
5.7359778362771735e-05
7.57499363111413e-05
9.238865064538043e-05
0.00010333517323369564
9.457795516304348e-05
6.217624830163043e-05
1.8390157948369565e-05
-2.5395932404891303e-05
-6.830630095108695e-05
-0.0001059623386548913
-0.00012391463569972824
-0.0001112166694972826
-7.57499363111413e-05
-3.7656037703804346e-05
-1.0946522588315217e-05
1.313582710597826e-06
0.0
-1.5762992527173912e-05
-3.853175951086956e-05
-5.4732612941576086e-05
-5.429475203804348e-05
-4.1596785835597826e-05
-3.283956776494565e-05
-3.283956776494565e-05
-3.283956776494565e-05
-2.8023097826086955e-05
-3.1088124150815216e-05
-6.261410920516304e-05
-0.00012522821841032608
-0.00019046949303668477
-0.0002176168690557065
-0.00018127441406249998
-8.801004161005434e-05
3.240170686141304e-05
0.0001475591244904891
0.0002320662788722826
0.00027147376019021736
0.00026315440302309784
0.0002176168690557065
0.00015325131623641303
9.195078974184782e-05
4.991614300271739e-05
2.933668053668478e-05
2.1893045176630434e-05
1.751443614130435e-05
1.2697966202445651e-05
7.443635360054348e-06
-1.7514436141304347e-06
-1.926587975543478e-05
-4.291036854619565e-05
-6.436555281929347e-05
-7.662565811820652e-05
-7.837710173233695e-05
-7.399849269701087e-05
-6.743057914402173e-05
-5.648405655570652e-05
-4.0283203124999995e-05
-1.970374065896739e-05
7.005774456521739e-06
4.247250764266304e-05
7.881496263586956e-05
0.00010202159052309782
0.00010508661684782608
9.414009425951087e-05
7.881496263586956e-05
6.173838739809782e-05
3.8093898607336954e-05
7.005774456521739e-06
-2.4520210597826086e-05
-4.728897758152174e-05
-6.56791355298913e-05
-9.414009425951087e-05
-0.00013923976732336957
-0.0001821501358695652
-0.00019441024116847826
-0.00016945216966711955
-0.00012785538383152173
-9.54536769701087e-05
-7.837710173233695e-05
-6.392769191576087e-05
-3.7656037703804346e-05
0.0
4.2034646739130435e-05
7.706351902173912e-05
0.0001011458687160326
0.00011296811311141304
0.00011077880859375
9.019934612771738e-05
5.0791864809782605e-05
2.1893045176630435e-06
-3.50288722826087e-05
-4.291036854619565e-05
-1.751443614130435e-05
2.1893045176630434e-05
4.991614300271739e-05
5.385689113451087e-05
3.984534222146739e-05
2.1017323369565217e-05
4.378609035326087e-06
-6.130052649456522e-06
-7.443635360054348e-06
0.0
1.0508661684782609e-05
1.8390157948369565e-05
1.8828018851902173e-05
1.2260105298913043e-05
3.065026324728261e-06
-3.940748131793478e-06
-5.254330842391304e-06
-1.7514436141304347e-06
4.378609035326087e-06
1.4011548913043478e-05
2.4082349694293478e-05
3.1088124150815216e-05
2.8023097826086955e-05
1.1822244395380435e-05
-1.4887270720108696e-05
-4.2034646739130435e-05
-5.7797639266304343e-05
-6.086266559103261e-05
-5.648405655570652e-05
-4.247250764266304e-05
-1.0946522588315217e-05
3.459101137907609e-05
8.012854534646738e-05
0.00011209239130434782
0.00012391463569972824
0.00010464875594429347
3.7656037703804346e-05
-7.268490998641304e-05
-0.00019003163213315218
-0.00026008937669836957
-0.00024958071501358697
-0.00016770072605298912
-5.7359778362771735e-05
3.721817680027174e-05
9.414009425951087e-05
0.00011384383491847825
0.00010771378226902174
9.282651154891303e-05
8.450715438179348e-05
8.494501528532609e-05
8.012854534646738e-05
5.604619565217391e-05
1.4449409816576086e-05
-2.670951511548913e-05
-4.641325577445652e-05
-3.634245499320652e-05
-8.757218070652174e-06
1.7076575237771737e-05
3.327742866847826e-05
4.4661812160326084e-05
5.1229725713315214e-05
3.678031589673913e-05
-1.4449409816576086e-05
-9.238865064538043e-05
-0.00015806778617527174
-0.00017514436141304347
-0.00013836404551630435
-6.918202275815218e-05
0.0
4.8602560292119564e-05
7.268490998641304e-05
8.187998896059783e-05
8.58207370923913e-05
8.187998896059783e-05
6.61169964334239e-05
4.334822944972826e-05
2.627165421195652e-05
1.751443614130435e-05
4.378609035326087e-06
-2.0141601562499998e-05
-4.772683848505435e-05
-5.954908288043478e-05
-5.0791864809782605e-05
-3.3715289572010865e-05
-2.1893045176630434e-05
-2.1017323369565217e-05
-3.1525985054347824e-05
-5.1229725713315214e-05
-7.268490998641304e-05
-8.319357167119565e-05
-7.487421450407608e-05
-5.210544752038043e-05
-2.4520210597826086e-05
3.065026324728261e-06
2.7585236922554347e-05
4.247250764266304e-05
4.247250764266304e-05
3.283956776494565e-05
2.364448879076087e-05
1.7952297044836957e-05
1.2697966202445651e-05
8.757218070652174e-06
9.63293987771739e-06
1.2260105298913043e-05
8.319357167119564e-06
0.0
0.0
1.2697966202445651e-05
2.364448879076087e-05
1.1822244395380435e-05
-2.7585236922554347e-05
-7.531207540760869e-05
-0.00010333517323369564
-9.939442510190217e-05
-7.093346637228261e-05
-3.459101137907609e-05
-3.940748131793478e-06
1.1822244395380435e-05
1.1822244395380435e-05
4.816469938858695e-06
4.816469938858695e-06
2.4082349694293478e-05
6.086266559103261e-05
0.00010333517323369564
0.00013267185377038043
0.00013267185377038043
9.720512058423913e-05
3.50288722826087e-05
-2.8898819633152172e-05
-6.699271824048912e-05
-6.961988366168479e-05
-5.385689113451087e-05
-5.298116932744565e-05
-8.494501528532609e-05
-0.00013398543648097824
-0.00016594928243885868
-0.00015719206436820652
-0.00010771378226902174
-3.196384595788043e-05
5.1229725713315214e-05
0.0001256660793138587
0.00017339291779891304
0.0001821501358695652
0.00015062415081521738
9.326437245244564e-05
3.4153150475543474e-05
-9.195078974184782e-06
-3.3715289572010865e-05
-4.115892493206522e-05
-3.327742866847826e-05
-8.319357167119564e-06
2.583379330842391e-05
5.0791864809782605e-05
5.035400390625e-05
2.627165421195652e-05
-6.130052649456522e-06
-3.283956776494565e-05
-4.772683848505435e-05
-4.728897758152174e-05
-3.1525985054347824e-05
-8.757218070652174e-06
7.443635360054348e-06
1.1384383491847825e-05
5.254330842391304e-06
-5.6921917459239125e-06
-2.276876698369565e-05
-4.597539487092391e-05
-7.00577445652174e-05
-8.58207370923913e-05
-8.801004161005434e-05
-7.618779721467391e-05
-5.254330842391304e-05
-1.8390157948369565e-05
2.057946246603261e-05
5.429475203804348e-05
7.399849269701087e-05
7.837710173233695e-05
7.093346637228261e-05
5.604619565217391e-05
3.721817680027174e-05
1.751443614130435e-05
-1.313582710597826e-06
-2.1893045176630434e-05
-4.072106402853261e-05
-5.385689113451087e-05
-5.7359778362771735e-05
-4.991614300271739e-05
-2.977454144021739e-05
8.757218070652174e-07
3.634245499320652e-05
6.348983101222826e-05
7.00577445652174e-05
5.0791864809782605e-05
8.757218070652174e-06
-4.0283203124999995e-05
-7.00577445652174e-05
-6.130052649456522e-05
-1.5762992527173912e-05
4.509967306385869e-05
9.983228600543478e-05
0.00013442329738451087
0.00014361837635869565
0.00012654180112092392
8.406929347826087e-05
2.5395932404891303e-05
-3.1088124150815216e-05
-6.743057914402173e-05
-7.969068444293477e-05
-7.487421450407608e-05
-5.5170473845108694e-05
-2.276876698369565e-05
3.5028872282608694e-06
-4.378609035326087e-07
-3.7656037703804346e-05
-8.144212805706522e-05
-0.00010464875594429347
-0.00010289731233016304
-8.713431980298913e-05
-6.918202275815218e-05
-5.385689113451087e-05
-4.378609035326087e-05
-4.2034646739130435e-05
-4.947828209918478e-05
-5.954908288043478e-05
-6.217624830163043e-05
-4.991614300271739e-05
-1.8390157948369565e-05
3.196384595788043e-05
9.151292883831521e-05
0.00013398543648097824
0.0001361747409986413
0.00010508661684782608
6.56791355298913e-05
3.678031589673913e-05
1.620085343070652e-05
0.0
-1.7952297044836957e-05
-5.1229725713315214e-05
-0.00011471955672554347
-0.00019835098930027172
-0.00025571076766304346
-0.00023732060971467392
-0.00013267185377038043
1.8390157948369565e-05
0.00016113281249999998
0.0002627165421195652
0.0003174491550611413
0.0003310228430706522
0.00030956765879755434
0.0002622786812160326
0.00019484810207201085
0.00010377303413722825
-1.1384383491847825e-05
-0.00013442329738451087
-0.00022812553074048913
-0.0002592136548913043
-0.0002215576171875
-0.00014274265455163044
-6.04248046875e-05
0.0
3.459101137907609e-05
4.55375339673913e-05
3.634245499320652e-05
1.2697966202445651e-05
-1.620085343070652e-05
-4.2034646739130435e-05
-6.305197010869565e-05
-7.531207540760869e-05
-6.918202275815218e-05
-3.634245499320652e-05
1.2260105298913043e-05
5.0791864809782605e-05
5.998694378396739e-05
4.247250764266304e-05
1.620085343070652e-05
-4.378609035326087e-06
-1.7076575237771737e-05
-1.7076575237771737e-05
0.0
3.240170686141304e-05
6.217624830163043e-05
6.480341372282608e-05
2.8898819633152172e-05
-3.1525985054347824e-05
-8.625859799592391e-05
-0.00011340597401494565
-0.00011165453040081521
-9.238865064538043e-05
-6.130052649456522e-05
-1.8390157948369565e-05
3.3715289572010865e-05
8.494501528532609e-05
0.00011734672214673912
0.00012041174847146739
9.808084239130435e-05
6.04248046875e-05
1.4449409816576086e-05
-3.327742866847826e-05
-6.830630095108695e-05
-7.268490998641304e-05
-4.4223951256793476e-05
-4.378609035326087e-07
3.327742866847826e-05
4.247250764266304e-05
2.8460958729619564e-05
3.940748131793478e-06
-1.8390157948369565e-05
-3.5466733186141305e-05
-4.4661812160326084e-05
-4.291036854619565e-05
-3.196384595788043e-05
-2.320662788722826e-05
-2.7585236922554347e-05
-4.641325577445652e-05
-6.874416185461957e-05
-7.969068444293477e-05
-7.356063179347826e-05
-5.56083347486413e-05
-2.8460958729619564e-05
1.620085343070652e-05
8.625859799592391e-05
0.00016200853430706522
0.00020798392917798913
0.00020973537279211956
0.00018521516219429347
0.00015894350798233695
0.00013486115828804346
0.0001011458687160326
4.8602560292119564e-05
-1.5762992527173912e-05
-7.443635360054348e-05
-0.00010815164317255435
-0.00011209239130434782
-9.326437245244564e-05
-5.954908288043478e-05
-1.5762992527173912e-05
2.714737601902174e-05
5.210544752038043e-05
4.597539487092391e-05
1.2697966202445651e-05
-2.5395932404891303e-05
-4.8602560292119564e-05
-4.728897758152174e-05
-3.240170686141304e-05
-2.583379330842391e-05
-4.378609035326087e-05
-8.625859799592391e-05
-0.00013967762822690217
-0.0001821501358695652
-0.0001917830757472826
-0.00015719206436820652
-8.801004161005434e-05
-9.63293987771739e-06
5.4732612941576086e-05
9.54536769701087e-05
0.00011428169582201086
0.00011559527853260869
0.00010421089504076086
8.494501528532609e-05
5.823550016983695e-05
2.057946246603261e-05
-3.065026324728261e-05
-9.019934612771738e-05
-0.00013880190641983695
-0.00014974842900815217
-0.00010683806046195652
-1.8390157948369565e-05
8.275571076766304e-05
0.0001615706734035326
0.00019922671110733693
0.00019572382387907607
0.00016375997792119566
0.00011866030485733696
7.399849269701087e-05
3.721817680027174e-05
9.195078974184782e-06
-8.757218070652174e-06
-1.7952297044836957e-05
