1.751443614130435e-05
2.4958071501358695e-05
3.1088124150815216e-05
3.3715289572010865e-05
3.1525985054347824e-05
2.670951511548913e-05
2.1893045176630434e-05
1.751443614130435e-05
1.1822244395380435e-05
4.816469938858695e-06
0.0
-3.065026324728261e-06
-7.443635360054348e-06
-1.620085343070652e-05
-2.8023097826086955e-05
-3.896962041440217e-05
-4.378609035326087e-05
-4.072106402853261e-05
-3.327742866847826e-05
-2.364448879076087e-05
-1.4011548913043478e-05
-4.816469938858695e-06
3.5028872282608694e-06
1.0946522588315217e-05
1.620085343070652e-05
1.8828018851902173e-05
1.926587975543478e-05
2.1455184273097826e-05
2.627165421195652e-05
3.1525985054347824e-05
3.1088124150815216e-05
2.364448879076087e-05
1.2697966202445651e-05
2.627165421195652e-06
-2.627165421195652e-06
-7.005774456521739e-06
-1.1822244395380435e-05
-1.5762992527173912e-05
-1.4887270720108696e-05
-1.0070800781249999e-05
-5.254330842391304e-06
-3.065026324728261e-06
-2.1893045176630435e-06
-4.378609035326087e-07
3.5028872282608694e-06
8.319357167119564e-06
9.195078974184782e-06
6.130052649456522e-06
3.940748131793478e-06
5.254330842391304e-06
8.757218070652174e-06
9.195078974184782e-06
5.254330842391304e-06
0.0
-2.627165421195652e-06
-2.1893045176630435e-06
-1.313582710597826e-06
-2.1893045176630435e-06
-5.254330842391304e-06
-7.443635360054348e-06
-8.319357167119564e-06
-7.443635360054348e-06
-3.5028872282608694e-06
3.5028872282608694e-06
1.313582710597826e-05
2.1017323369565217e-05
2.5395932404891303e-05
2.714737601902174e-05
2.8023097826086955e-05
2.8460958729619564e-05
2.670951511548913e-05
2.1017323369565217e-05
1.0070800781249999e-05
-4.378609035326087e-06
-1.8828018851902173e-05
-2.8460958729619564e-05
-3.196384595788043e-05
-3.1525985054347824e-05
-3.065026324728261e-05
-3.021240234375e-05
-2.8898819633152172e-05
-2.364448879076087e-05
-1.4449409816576086e-05
-3.940748131793478e-06
4.816469938858695e-06
1.0946522588315217e-05
1.5762992527173912e-05
1.7952297044836957e-05
1.7952297044836957e-05
1.926587975543478e-05
2.364448879076087e-05
3.1525985054347824e-05
4.0283203124999995e-05
4.55375339673913e-05
4.291036854619565e-05
3.196384595788043e-05
1.663871433423913e-05
3.940748131793478e-06
-3.940748131793478e-06
-1.0070800781249999e-05
-1.5325131623641304e-05
-1.926587975543478e-05
-2.057946246603261e-05
-2.1017323369565217e-05
-2.1893045176630434e-05
-2.320662788722826e-05
-2.320662788722826e-05
-2.1455184273097826e-05
-2.0141601562499998e-05
-1.926587975543478e-05
-1.5762992527173912e-05
-4.816469938858695e-06
1.0946522588315217e-05
2.670951511548913e-05
3.678031589673913e-05
4.247250764266304e-05
4.597539487092391e-05
4.772683848505435e-05
4.641325577445652e-05
4.1596785835597826e-05
3.4153150475543474e-05
2.4082349694293478e-05
1.1822244395380435e-05
-4.378609035326087e-07
-9.195078974184782e-06
-1.357368800951087e-05
-1.620085343070652e-05
-2.057946246603261e-05
-2.4958071501358695e-05
-2.714737601902174e-05
-2.583379330842391e-05
-2.364448879076087e-05
-2.1017323369565217e-05
-1.4887270720108696e-05
-5.254330842391304e-06
3.5028872282608694e-06
8.757218070652174e-06
1.2260105298913043e-05
1.7076575237771737e-05
2.320662788722826e-05
2.8460958729619564e-05
3.021240234375e-05
2.7585236922554347e-05
2.057946246603261e-05
1.1822244395380435e-05
5.254330842391304e-06
1.313582710597826e-06
-1.313582710597826e-06
-6.56791355298913e-06
-1.313582710597826e-05
-1.7076575237771737e-05
-1.751443614130435e-05
-1.663871433423913e-05
-1.7076575237771737e-05
-1.8390157948369565e-05
-1.8390157948369565e-05
-1.8828018851902173e-05
-1.970374065896739e-05
-1.970374065896739e-05
-1.7076575237771737e-05
-1.313582710597826e-05
-8.757218070652174e-06
-5.254330842391304e-06
-8.757218070652174e-07
2.627165421195652e-06
5.6921917459239125e-06
7.881496263586956e-06
8.757218070652174e-06
8.757218070652174e-06
6.130052649456522e-06
3.065026324728261e-06
1.7514436141304347e-06
2.627165421195652e-06
2.627165421195652e-06
-4.378609035326087e-07
-4.816469938858695e-06
-4.816469938858695e-06
-4.378609035326087e-07
3.065026324728261e-06
3.065026324728261e-06
0.0
-3.065026324728261e-06
-5.6921917459239125e-06
-6.130052649456522e-06
-3.065026324728261e-06
0.0
1.313582710597826e-06
8.757218070652174e-07
1.7514436141304347e-06
5.254330842391304e-06
9.195078974184782e-06
9.63293987771739e-06
6.56791355298913e-06
3.5028872282608694e-06
3.940748131793478e-06
7.005774456521739e-06
9.195078974184782e-06
8.319357167119564e-06
5.6921917459239125e-06
2.1893045176630435e-06
-1.313582710597826e-06
-4.378609035326087e-06
-5.6921917459239125e-06
-6.130052649456522e-06
-6.130052649456522e-06
-3.940748131793478e-06
0.0
2.1893045176630435e-06
1.313582710597826e-06
0.0
-8.757218070652174e-07
-8.757218070652174e-07
0.0
1.7514436141304347e-06
4.378609035326087e-06
5.6921917459239125e-06
5.6921917459239125e-06
4.816469938858695e-06
3.940748131793478e-06
2.627165421195652e-06
4.378609035326087e-07
-3.5028872282608694e-06
-7.881496263586956e-06
-9.63293987771739e-06
-8.319357167119564e-06
-6.56791355298913e-06
-4.816469938858695e-06
-2.627165421195652e-06
-1.313582710597826e-06
-2.1893045176630435e-06
-4.378609035326087e-06
-3.940748131793478e-06
-4.378609035326087e-07
3.5028872282608694e-06
5.6921917459239125e-06
3.065026324728261e-06
-4.378609035326087e-07
-2.1893045176630435e-06
0.0
2.627165421195652e-06
3.5028872282608694e-06
1.7514436141304347e-06
0.0
-8.757218070652174e-07
0.0
1.7514436141304347e-06
3.5028872282608694e-06
3.065026324728261e-06
4.378609035326087e-07
-2.627165421195652e-06
-6.130052649456522e-06
-8.319357167119564e-06
-8.319357167119564e-06
-5.254330842391304e-06
-4.378609035326087e-07
3.5028872282608694e-06
5.6921917459239125e-06
7.005774456521739e-06
7.443635360054348e-06
6.56791355298913e-06
4.816469938858695e-06
2.1893045176630435e-06
0.0
-1.313582710597826e-06
-8.757218070652174e-07
0.0
0.0
8.757218070652174e-07
3.5028872282608694e-06
7.005774456521739e-06
8.757218070652174e-06
7.881496263586956e-06
3.065026324728261e-06
-4.378609035326087e-06
-9.63293987771739e-06
-1.0946522588315217e-05
-9.63293987771739e-06
-9.195078974184782e-06
-1.1384383491847825e-05
-1.4449409816576086e-05
-1.620085343070652e-05
-1.5762992527173912e-05
-1.4449409816576086e-05
-1.2697966202445651e-05
-9.195078974184782e-06
-3.065026324728261e-06
3.940748131793478e-06
1.1384383491847825e-05
1.5762992527173912e-05
1.357368800951087e-05
3.5028872282608694e-06
-7.881496263586956e-06
-1.751443614130435e-05
-2.320662788722826e-05
-2.583379330842391e-05
-2.714737601902174e-05
-2.7585236922554347e-05
-2.627165421195652e-05
-1.970374065896739e-05
-8.319357167119564e-06
4.378609035326087e-06
1.8828018851902173e-05
3.283956776494565e-05
4.334822944972826e-05
4.509967306385869e-05
3.459101137907609e-05
1.620085343070652e-05
-5.254330842391304e-06
-2.364448879076087e-05
-3.634245499320652e-05
-4.072106402853261e-05
-3.634245499320652e-05
-2.627165421195652e-05
-1.5325131623641304e-05
-6.56791355298913e-06
1.7514436141304347e-06
1.5762992527173912e-05
3.634245499320652e-05
5.648405655570652e-05
6.699271824048912e-05
6.61169964334239e-05
5.648405655570652e-05
4.2034646739130435e-05
2.5395932404891303e-05
9.63293987771739e-06
0.0
-3.065026324728261e-06
-3.065026324728261e-06
-3.940748131793478e-06
-7.881496263586956e-06
-1.357368800951087e-05
-1.751443614130435e-05
-1.7952297044836957e-05
-1.5325131623641304e-05
-1.0946522588315217e-05
-7.881496263586956e-06
-7.443635360054348e-06
-7.443635360054348e-06
-7.443635360054348e-06
-8.757218070652174e-06
-1.1822244395380435e-05
-1.4887270720108696e-05
-1.4887270720108696e-05
-1.1822244395380435e-05
-7.443635360054348e-06
-1.7514436141304347e-06
2.1893045176630435e-06
4.816469938858695e-06
6.56791355298913e-06
7.443635360054348e-06
7.881496263586956e-06
7.881496263586956e-06
7.881496263586956e-06
8.319357167119564e-06
7.005774456521739e-06
2.627165421195652e-06
-3.940748131793478e-06
-1.2697966202445651e-05
-1.8390157948369565e-05
-1.751443614130435e-05
-1.357368800951087e-05
-1.2260105298913043e-05
-1.5762992527173912e-05
-1.7952297044836957e-05
-1.4449409816576086e-05
-7.443635360054348e-06
-3.065026324728261e-06
-2.627165421195652e-06
-1.7514436141304347e-06
4.378609035326087e-07
4.378609035326087e-07
-2.627165421195652e-06
-4.816469938858695e-06
4.378609035326087e-07
1.5325131623641304e-05
3.1525985054347824e-05
3.940748131793478e-05
3.896962041440217e-05
3.590459408967391e-05
3.327742866847826e-05
2.933668053668478e-05
2.276876698369565e-05
1.5325131623641304e-05
1.0508661684782609e-05
8.319357167119564e-06
4.816469938858695e-06
-1.313582710597826e-06
-1.0508661684782609e-05
-1.7076575237771737e-05
-1.663871433423913e-05
-1.0508661684782609e-05
-5.254330842391304e-06
-3.5028872282608694e-06
-2.627165421195652e-06
-4.378609035326087e-07
3.5028872282608694e-06
9.63293987771739e-06
1.4887270720108696e-05
1.7076575237771737e-05
1.4887270720108696e-05
1.1384383491847825e-05
8.757218070652174e-06
6.130052649456522e-06
4.378609035326087e-06
3.940748131793478e-06
4.816469938858695e-06
5.254330842391304e-06
4.816469938858695e-06
2.627165421195652e-06
-8.757218070652174e-07
-3.940748131793478e-06
-4.378609035326087e-06
-3.5028872282608694e-06
-3.065026324728261e-06
-3.5028872282608694e-06
-4.816469938858695e-06
-6.56791355298913e-06
-7.005774456521739e-06
-6.130052649456522e-06
-3.940748131793478e-06
-1.7514436141304347e-06
0.0
1.313582710597826e-06
8.757218070652174e-07
-4.378609035326087e-07
-1.313582710597826e-06
0.0
1.313582710597826e-06
3.940748131793478e-06
7.881496263586956e-06
1.2697966202445651e-05
1.4887270720108696e-05
1.313582710597826e-05
7.005774456521739e-06
4.378609035326087e-07
-3.5028872282608694e-06
-5.6921917459239125e-06
-8.757218070652174e-06
-1.4011548913043478e-05
-1.8828018851902173e-05
-2.320662788722826e-05
-2.627165421195652e-05
-2.670951511548913e-05
-1.970374065896739e-05
-6.56791355298913e-06
8.319357167119564e-06
2.057946246603261e-05
2.714737601902174e-05
2.8023097826086955e-05
2.4520210597826086e-05
1.5762992527173912e-05
8.757218070652174e-07
-1.5762992527173912e-05
-2.8898819633152172e-05
-3.327742866847826e-05
-3.065026324728261e-05
-2.714737601902174e-05
-2.583379330842391e-05
-2.583379330842391e-05
-2.4958071501358695e-05
-2.1017323369565217e-05
-1.0070800781249999e-05
7.005774456521739e-06
2.670951511548913e-05
4.115892493206522e-05
4.55375339673913e-05
3.853175951086956e-05
2.5395932404891303e-05
1.2697966202445651e-05
4.816469938858695e-06
3.5028872282608694e-06
8.319357167119564e-06
1.663871433423913e-05
2.2330906080163042e-05
1.926587975543478e-05
5.254330842391304e-06
-1.620085343070652e-05
-3.984534222146739e-05
-5.867336107336956e-05
-6.743057914402173e-05
-6.830630095108695e-05
-6.918202275815218e-05
-7.662565811820652e-05
-8.844790251358695e-05
-9.501581606657609e-05
-8.406929347826087e-05
-5.385689113451087e-05
-1.1384383491847825e-05
3.240170686141304e-05
6.961988366168479e-05
9.632939877717391e-05
0.00011034094769021739
0.00011384383491847825
0.0001112166694972826
0.00010683806046195652
9.895656419836956e-05
8.187998896059783e-05
5.4732612941576086e-05
2.320662788722826e-05
-4.816469938858695e-06
-2.627165421195652e-05
-4.115892493206522e-05
-5.0791864809782605e-05
-5.385689113451087e-05
-4.728897758152174e-05
-3.4153150475543474e-05
-2.057946246603261e-05
-1.1384383491847825e-05
-3.065026324728261e-06
9.63293987771739e-06
2.714737601902174e-05
4.1596785835597826e-05
4.509967306385869e-05
3.853175951086956e-05
2.8023097826086955e-05
1.751443614130435e-05
7.881496263586956e-06
-2.1893045176630435e-06
-1.313582710597826e-05
-2.4520210597826086e-05
-3.1525985054347824e-05
-3.065026324728261e-05
-2.1455184273097826e-05
-6.56791355298913e-06
5.254330842391304e-06
8.757218070652174e-06
2.1893045176630435e-06
-5.254330842391304e-06
-6.130052649456522e-06
-8.757218070652174e-07
3.940748131793478e-06
3.940748131793478e-06
-2.1893045176630435e-06
-1.2260105298913043e-05
-2.1017323369565217e-05
-2.4520210597826086e-05
-2.276876698369565e-05
-2.057946246603261e-05
-1.970374065896739e-05
-1.8828018851902173e-05
-1.620085343070652e-05
-1.0508661684782609e-05
-8.757218070652174e-07
1.2260105298913043e-05
2.7585236922554347e-05
4.334822944972826e-05
5.4732612941576086e-05
5.7359778362771735e-05
5.0791864809782605e-05
4.072106402853261e-05
3.1088124150815216e-05
2.2330906080163042e-05
1.313582710597826e-05
2.1893045176630435e-06
-7.443635360054348e-06
-1.4887270720108696e-05
-1.7076575237771737e-05
-1.620085343070652e-05
-1.620085343070652e-05
-2.0141601562499998e-05
-2.5395932404891303e-05
-2.8460958729619564e-05
-2.8023097826086955e-05
-2.4082349694293478e-05
-1.926587975543478e-05
-1.4887270720108696e-05
-1.0508661684782609e-05
-5.254330842391304e-06
0.0
5.254330842391304e-06
1.2260105298913043e-05
1.970374065896739e-05
2.276876698369565e-05
1.7952297044836957e-05
1.0070800781249999e-05
5.254330842391304e-06
6.56791355298913e-06
1.0508661684782609e-05
1.4449409816576086e-05
1.5762992527173912e-05
1.2260105298913043e-05
4.816469938858695e-06
-2.1893045176630435e-06
-5.254330842391304e-06
-4.378609035326087e-06
-2.627165421195652e-06
-3.940748131793478e-06
-1.2260105298913043e-05
-2.670951511548913e-05
-4.378609035326087e-05
-5.911122197690217e-05
-7.137132727581522e-05
-7.837710173233695e-05
-8.363143257472826e-05
-9.501581606657609e-05
-0.00011953602666440217
-0.00014843484629755433
-0.00015938136888586955
-0.00013486115828804346
-7.180918817934783e-05
1.7076575237771737e-05
0.00010946522588315217
0.0001808365531589674
0.00021980617357336956
0.00023075269616168478
0.0002263740871263587
0.00021498970363451086
0.00019309665845788042
0.00014843484629755433
7.706351902173912e-05
-7.881496263586956e-06
-8.187998896059783e-05
-0.00012654180112092392
-0.0001401154891304348
-0.00013267185377038043
-0.0001160331394361413
-9.414009425951087e-05
-6.743057914402173e-05
-4.291036854619565e-05
-3.1525985054347824e-05
-3.678031589673913e-05
-4.55375339673913e-05
-3.327742866847826e-05
1.357368800951087e-05
8.53828761888587e-05
0.00014843484629755433
0.00016945216966711955
0.00013836404551630435
7.57499363111413e-05
1.970374065896739e-05
-4.378609035326087e-06
8.757218070652174e-07
1.2697966202445651e-05
1.2260105298913043e-05
-2.1893045176630435e-06
-1.8828018851902173e-05
-2.1893045176630434e-05
-3.5028872282608694e-06
3.327742866847826e-05
7.706351902173912e-05
0.00011165453040081521
0.00012391463569972824
0.0001160331394361413
9.676725968070652e-05
7.137132727581522e-05
3.678031589673913e-05
-9.195078974184782e-06
-5.998694378396739e-05
-9.983228600543478e-05
-0.00011778458305027173
-0.00010990308678668478
-8.58207370923913e-05
-6.918202275815218e-05
-8.53828761888587e-05
-0.0001401154891304348
-0.00021104895550271737
-0.00026096509850543476
-0.00026578156844429346
-0.0002276876698369565
-0.0001563163425611413
-5.911122197690217e-05
5.7359778362771735e-05
0.0001707657523777174
0.00024476424507472827
0.00025089429772418476
0.00019484810207201085
0.00010946522588315217
3.196384595788043e-05
-2.2330906080163042e-05
-5.7797639266304343e-05
-8.144212805706522e-05
-9.54536769701087e-05
-9.195078974184782e-05
-6.348983101222826e-05
-1.2260105298913043e-05
4.685111667798913e-05
9.414009425951087e-05
0.00011428169582201086
0.00010289731233016304
6.786844004755434e-05
2.8898819633152172e-05
9.195078974184782e-06
2.276876698369565e-05
6.217624830163043e-05
0.00010946522588315217
0.00014580768087635868
0.00016200853430706522
0.00016069495159646739
0.00014843484629755433
0.00012697966202445651
9.063720703124999e-05
3.590459408967391e-05
-2.8023097826086955e-05
-8.406929347826087e-05
-0.00011471955672554347
-0.00011428169582201086
-9.063720703124999e-05
-5.692191745923913e-05
-2.5395932404891303e-05
-3.5028872282608694e-06
6.130052649456522e-06
3.5028872282608694e-06
-7.881496263586956e-06
-2.933668053668478e-05
-6.130052649456522e-05
-0.0001011458687160326
-0.00014055335003396738
-0.00016989003057065217
-0.0001860908840013587
-0.00019046949303668477
-0.00018302585767663042
-0.00016244639521059782
-0.00013092041015625
-9.676725968070652e-05
-6.830630095108695e-05
-3.8093898607336954e-05
1.2260105298913043e-05
8.932362432065217e-05
0.00017426863960597825
0.00023950991423233694
0.0002745387865149456
0.0002824202827785326
0.0002618408203125
0.00020360532014266304
0.0001160331394361413
3.50288722826087e-05
-4.816469938858695e-06
-5.254330842391304e-06
4.378609035326087e-06
4.378609035326087e-07
-1.2697966202445651e-05
-1.926587975543478e-05
-1.663871433423913e-05
-2.0141601562499998e-05
-4.0283203124999995e-05
-6.699271824048912e-05
-8.58207370923913e-05
-9.326437245244564e-05
-9.501581606657609e-05
-9.282651154891303e-05
-8.713431980298913e-05
-7.881496263586956e-05
-6.699271824048912e-05
-4.8602560292119564e-05
-2.8460958729619564e-05
-1.7076575237771737e-05
-1.4449409816576086e-05
-2.1893045176630435e-06
3.721817680027174e-05
9.326437245244564e-05
0.00012391463569972824
9.895656419836956e-05
2.714737601902174e-05
-4.947828209918478e-05
-9.676725968070652e-05
-0.00010464875594429347
-8.757218070652174e-05
-6.830630095108695e-05
-6.392769191576087e-05
-7.969068444293477e-05
-0.00010202159052309782
-0.00011296811311141304
-0.00010333517323369564
-8.275571076766304e-05
-6.217624830163043e-05
-3.3715289572010865e-05
2.0141601562499998e-05
0.00010289731233016304
0.00018828018851902174
0.00024388852326766303
0.00025614862856657605
0.00023469344429347824
0.00019309665845788042
0.00013923976732336957
8.187998896059783e-05
3.4153150475543474e-05
2.627165421195652e-06
-1.8390157948369565e-05
-4.0283203124999995e-05
-6.261410920516304e-05
-7.57499363111413e-05
-7.531207540760869e-05
-6.743057914402173e-05
-6.217624830163043e-05
-6.130052649456522e-05
-5.56083347486413e-05
-3.634245499320652e-05
-5.254330842391304e-06
2.5395932404891303e-05
4.728897758152174e-05
6.130052649456522e-05
7.093346637228261e-05
7.00577445652174e-05
4.2034646739130435e-05
-2.1017323369565217e-05
-0.00010815164317255435
-0.00019353451936141304
-0.00024958071501358697
-0.0002596515157948369
-0.0002215576171875
-0.00014449409816576087
-4.247250764266304e-05
6.04248046875e-05
0.0001322339928668478
0.00014799698539402173
0.00011690886124320651
7.881496263586956e-05
6.61169964334239e-05
7.662565811820652e-05
8.056640624999999e-05
5.692191745923913e-05
1.1822244395380435e-05
-2.977454144021739e-05
-4.991614300271739e-05
-4.1596785835597826e-05
-7.881496263586956e-06
4.509967306385869e-05
0.00010464875594429347
0.00014361837635869565
0.00012916896654211957
5.210544752038043e-05
-5.7359778362771735e-05
-0.00014712126358695652
-0.0001821501358695652
-0.0001655114215353261
-0.00012347677479619565
-7.925282353940217e-05
-2.627165421195652e-05
5.867336107336956e-05
0.0001755822223165761
0.0002771659519361413
0.00030650263247282607
0.00024958071501358697
0.00014318051545516303
4.072106402853261e-05
-2.8898819633152172e-05
-6.436555281929347e-05
-8.012854534646738e-05
-8.757218070652174e-05
-9.282651154891303e-05
-9.764298148777174e-05
-0.00010333517323369564
-0.00010858950407608696
-0.00011034094769021739
-0.00011165453040081521
-0.00011822244395380434
-0.00013092041015625
-0.00013748832370923914
-0.0001261039402173913
-9.370223335597826e-05
-4.641325577445652e-05
5.6921917459239125e-06
4.904042119565217e-05
6.61169964334239e-05
4.8164699388586956e-05
1.0508661684782609e-05
-7.443635360054348e-06
2.1893045176630434e-05
8.844790251358695e-05
0.00014361837635869565
0.0001475591244904891
0.00010289731233016304
4.685111667798913e-05
1.4449409816576086e-05
1.2697966202445651e-05
2.8898819633152172e-05
4.772683848505435e-05
6.261410920516304e-05
7.443635360054348e-05
7.881496263586956e-05
7.00577445652174e-05
5.0791864809782605e-05
3.1088124150815216e-05
1.1822244395380435e-05
-1.2260105298913043e-05
-3.1088124150815216e-05
-1.663871433423913e-05
3.984534222146739e-05
0.00010377303413722825
0.00011953602666440217
6.874416185461957e-05
-7.005774456521739e-06
-4.904042119565217e-05
-3.590459408967391e-05
5.6921917459239125e-06
4.072106402853261e-05
5.385689113451087e-05
4.291036854619565e-05
4.816469938858695e-06
-5.7359778362771735e-05
-0.0001261039402173913
-0.00017339291779891304
-0.00018258799677309782
-0.00015762992527173911
-0.00011471955672554347
-6.918202275815218e-05
-3.327742866847826e-05
-1.620085343070652e-05
-1.0070800781249999e-05
1.313582710597826e-05
7.268490998641304e-05
0.0001401154891304348
0.00014405623726222825
3.678031589673913e-05
-0.00015325131623641303
-0.0003415315047554348
-0.0004658840013586956
-0.0005293738323709239
-0.0005587105129076087
-0.0005429475203804347
-0.0004457423997961956
-0.0002732252038043478
-9.238865064538043e-05
3.4153150475543474e-05
0.00011296811311141304
0.00019046949303668477
0.0002767280910326087
0.00033452573029891304
0.00033715289572010867
0.0003174491550611413
0.0003279578167459239
0.00037524679432744565
0.00041290283203125
0.0003945126740828804
0.00032182776409646737
0.00023381772248641302
0.00016463569972826087
0.00012260105298913043
0.00010245945142663043
9.895656419836956e-05
9.720512058423913e-05
6.524127462635869e-05
-1.8828018851902173e-05
-0.00014274265455163044
-0.00025833793308423914
-0.00032182776409646737
-0.0003235792077105978
-0.0002824202827785326
-0.00021542756453804348
-0.00011953602666440217
9.195078974184782e-06
0.0001401154891304348
0.00021936831266983694
0.00022374692170516302
0.0001909073539402174
0.00017908510954483696
0.00020535676375679348
0.00023119055706521737
0.00020842179008152172
0.00013179613196331522
3.678031589673913e-05
-3.50288722826087e-05
-6.217624830163043e-05
-4.072106402853261e-05
1.4449409816576086e-05
6.348983101222826e-05
5.7359778362771735e-05
-2.1455184273097826e-05
-0.00013267185377038043
-0.00020973537279211956
-0.0002171790081521739
-0.0001764579441236413
-0.00012960682744565216
-0.00010027014690896739
-8.363143257472826e-05
-7.137132727581522e-05
-6.480341372282608e-05
-6.918202275815218e-05
-7.443635360054348e-05
-5.954908288043478e-05
-1.1822244395380435e-05
5.648405655570652e-05
0.00011340597401494565
0.00012347677479619565
7.750137992527173e-05
2.1893045176630435e-06
-5.867336107336956e-05
-7.57499363111413e-05
-4.4223951256793476e-05
1.751443614130435e-05
7.925282353940217e-05
0.00011077880859375
9.895656419836956e-05
5.210544752038043e-05
-1.357368800951087e-05
-8.450715438179348e-05
-0.0001409912109375
-0.00016375997792119566
-0.00014536981997282609
-0.00010377303413722825
-7.356063179347826e-05
-8.231784986413044e-05
-0.00013004468834918478
-0.0001869666058084239
-0.0002171790081521739
-0.0002066703464673913
-0.00016419783882472825
-0.00010245945142663043
-2.1893045176630434e-05
8.100426715353261e-05
0.00019572382387907607
0.00028592317000679347
0.00030694049337635866
0.00024345066236413043
0.0001256660793138587
8.757218070652174e-06
-6.830630095108695e-05
-9.457795516304348e-05
-7.224704908288043e-05
-1.5325131623641304e-05
4.4661812160326084e-05
7.487421450407608e-05
6.743057914402173e-05
4.772683848505435e-05
4.334822944972826e-05
5.429475203804348e-05
5.56083347486413e-05
2.4958071501358695e-05
-3.50288722826087e-05
-0.00010464875594429347
-0.00016332211701766304
-0.00019659954568614129
-0.00019835098930027172
-0.0001768958050271739
-0.00016113281249999998
-0.00017470650050951088
-0.00020535676375679348
-0.00021805472995923913
-0.00019484810207201085
-0.00013880190641983695
-3.7656037703804346e-05
0.00013442329738451087
0.00036254882812499997
0.0005630891219429347
0.0006423419454823369
0.000576224949048913
0.00042560079823369566
0.0002745387865149456
0.0001668250042459239
9.808084239130435e-05
4.4661812160326084e-05
-1.4011548913043478e-05
-8.844790251358695e-05
-0.00017251719599184782
-0.00023907205332880435
-0.0002574622112771739
-0.0002268119480298913
-0.0001716414741847826
-0.00010990308678668478
-3.721817680027174e-05
4.4661812160326084e-05
0.00010245945142663043
9.282651154891303e-05
9.63293987771739e-06
-0.0001007080078125
-0.00017426863960597825
-0.00017295505689538042
-9.983228600543478e-05
1.2260105298913043e-05
0.00011909816576086957
0.00018565302309782607
0.00019966457201086956
0.00016945216966711955
0.00010815164317255435
2.627165421195652e-05
-5.692191745923913e-05
-0.00011077880859375
-0.00010815164317255435
-5.867336107336956e-05
-5.6921917459239125e-06
3.5028872282608694e-06
-3.853175951086956e-05
-9.983228600543478e-05
-0.0001361747409986413
-0.0001256660793138587
-8.187998896059783e-05
-3.283956776494565e-05
0.0
3.065026324728261e-06
-2.670951511548913e-05
-8.450715438179348e-05
-0.0001462455417798913
-0.00018390157948369563
-0.0001817122749660326
-0.00014405623726222825
-8.275571076766304e-05
-4.378609035326087e-06
8.888576341711956e-05
0.00018784232761548912
0.00026578156844429346
0.00029073963994565217
0.0002473914104959239
0.0001554406207540761
5.998694378396739e-05
0.0
-1.2697966202445651e-05
7.881496263586956e-06
4.247250764266304e-05
7.925282353940217e-05
0.0001160331394361413
0.00014449409816576087
0.0001475591244904891
0.00010990308678668478
3.678031589673913e-05
-5.298116932744565e-05
-0.00013836404551630435
-0.0001922209366508152
-0.0001808365531589674
-8.53828761888587e-05
5.604619565217391e-05
0.00015500275985054347
0.0001366126019021739
1.313582710597826e-05
-0.00011866030485733696
-0.00016025709069293476
-9.501581606657609e-05
4.378609035326087e-06
5.035400390625e-05
1.0508661684782609e-05
-7.487421450407608e-05
-0.00013792618461277173
-0.00012741752292798914
-3.721817680027174e-05
8.801004161005434e-05
0.00017383077870244563
0.00016857644786005433
8.669645889945652e-05
-8.757218070652174e-07
-3.1525985054347824e-05
0.0
4.772683848505435e-05
6.173838739809782e-05
3.1525985054347824e-05
-1.8390157948369565e-05
-6.173838739809782e-05
-8.713431980298913e-05
-9.019934612771738e-05
-7.00577445652174e-05
-2.933668053668478e-05
2.0141601562499998e-05
5.823550016983695e-05
6.348983101222826e-05
2.8898819633152172e-05
-2.670951511548913e-05
-6.918202275815218e-05
-6.918202275815218e-05
-2.1455184273097826e-05
5.823550016983695e-05
0.00014580768087635868
0.0002119246773097826
0.00023075269616168478
0.00020054029381793477
0.00014405623726222825
8.58207370923913e-05
2.583379330842391e-05
-5.210544752038043e-05
-0.00014580768087635868
-0.0002171790081521739
-0.00023381772248641302
-0.00021323826002038042
-0.00021280039911684783
-0.0002723494819972826
-0.00036999246348505435
-0.0004378609035326087
-0.00041290283203125
-0.00027629023012907606
-6.173838739809782e-05
0.00016025709069293476
0.00032051418138586953
0.00038575545601222824
0.0003673652980638587
0.0002977454144021739
0.00020448104194972826
0.00011034094769021739
4.072106402853261e-05
1.926587975543478e-05
3.984534222146739e-05
6.830630095108695e-05
6.874416185461957e-05
3.590459408967391e-05
-1.0946522588315217e-05
-5.0791864809782605e-05
-7.268490998641304e-05
-7.706351902173912e-05
-6.743057914402173e-05
-3.940748131793478e-05
1.5762992527173912e-05
8.932362432065217e-05
0.0001401154891304348
0.00012873110563858695
6.261410920516304e-05
-6.130052649456522e-06
-3.7656037703804346e-05
-4.291036854619565e-05
-6.348983101222826e-05
-0.00012172533118206522
-0.00019397238026494564
-0.00023381772248641302
-0.00021280039911684783
-0.00013529901919157608
-2.276876698369565e-05
9.764298148777174e-05
0.00019484810207201085
0.00023732060971467392
0.00021148681640625
0.00013004468834918478
2.4082349694293478e-05
-6.130052649456522e-05
-8.406929347826087e-05
-3.853175951086956e-05
2.977454144021739e-05
6.61169964334239e-05
6.04248046875e-05
5.341903023097826e-05
7.750137992527173e-05
0.00012041174847146739
0.00014712126358695652
0.00014799698539402173
0.00013967762822690217
0.0001313582710597826
0.00010289731233016304
4.378609035326087e-05
-1.4011548913043478e-05
-2.1455184273097826e-05
3.50288722826087e-05
0.000120849609375
0.00019353451936141304
0.00023469344429347824
0.00023556916610054346
0.0001817122749660326
6.56791355298913e-05
-9.501581606657609e-05
-0.00027016017747961957
-0.0004356715990149456
-0.0005709706182065217
-0.0006410283627717391
-0.0006077509341032609
-0.0004680733058763587
-0.0002749766474184783
-0.00010027014690896739
2.1455184273097826e-05
9.895656419836956e-05
0.00014055335003396738
0.0001313582710597826
6.480341372282608e-05
-2.057946246603261e-05
-5.648405655570652e-05
-7.443635360054348e-06
9.195078974184782e-05
0.00016594928243885868
0.00016726286514945652
0.00011253025220788043
4.991614300271739e-05
3.5028872282608694e-06
-3.940748131793478e-05
-9.282651154891303e-05
-0.0001401154891304348
-0.00015368917713994565
-0.00012391463569972824
-6.392769191576087e-05
1.2260105298913043e-05
0.0001007080078125
0.00019484810207201085
0.00027891739555027174
0.0003314607039741848
0.0003288335385529891
0.00025089429772418476
0.00010421089504076086
-6.480341372282608e-05
-0.0001917830757472826
-0.00023513130519701086
-0.0001970374065896739
-0.00010858950407608696
-1.313582710597826e-06
0.00010158372961956521
0.00017602008322010869
0.0001961616847826087
0.0001475591244904891
4.947828209918478e-05
-5.1229725713315214e-05
-0.00010946522588315217
-0.00010771378226902174
-6.830630095108695e-05
-3.940748131793478e-05
-4.8602560292119564e-05
-7.793924082880434e-05
-8.625859799592391e-05
-5.7359778362771735e-05
-1.4011548913043478e-05
1.7952297044836957e-05
3.590459408967391e-05
4.597539487092391e-05
4.4223951256793476e-05
2.627165421195652e-05
8.319357167119564e-06
1.970374065896739e-05
6.348983101222826e-05
0.00010683806046195652
0.00011209239130434782
6.786844004755434e-05
-8.757218070652174e-06
-8.844790251358695e-05
-0.00014055335003396738
-0.00014974842900815217
-0.00012435249660326086
-8.231784986413044e-05
-3.283956776494565e-05
1.751443614130435e-05
5.5170473845108694e-05
6.61169964334239e-05
6.086266559103261e-05
6.436555281929347e-05
8.844790251358695e-05
0.00011384383491847825
0.00011515741762907608
8.757218070652174e-05
4.115892493206522e-05
-2.320662788722826e-05
-0.00011384383491847825
-0.00021323826002038042
-0.00027059803838315217
-0.00024520210597826086
-0.00015325131623641303
-4.8164699388586956e-05
2.670951511548913e-05
5.604619565217391e-05
4.115892493206522e-05
-3.5028872282608694e-06
-4.4223951256793476e-05
-3.590459408967391e-05
3.678031589673913e-05
0.0001401154891304348
0.00021936831266983694
0.00024870499320652173
0.0002465156886888587
0.00024038563603940216
0.00023513130519701086
0.00021586542544157607
0.00017295505689538042
0.00011471955672554347
5.604619565217391e-05
-1.313582710597826e-06
-6.56791355298913e-05
-0.0001313582710597826
-0.00017383077870244563
-0.00017426863960597825
-0.00014186693274456522
-0.00010377303413722825
-7.487421450407608e-05
-5.4732612941576086e-05
-4.247250764266304e-05
-4.4661812160326084e-05
-6.436555281929347e-05
-8.669645889945652e-05
-9.414009425951087e-05
-8.58207370923913e-05
-7.706351902173912e-05
-7.881496263586956e-05
-8.625859799592391e-05
-9.58915378736413e-05
-0.00011734672214673912
-0.00016069495159646739
-0.0002066703464673913
-0.00020842179008152172
-0.00013092041015625
1.5762992527173912e-05
0.00017952297044836955
0.00029686969259510866
0.00032182776409646737
0.00024126135784646738
8.056640624999999e-05
-0.00010202159052309782
-0.00024038563603940216
-0.0002797931173573369
-0.0002075460682744565
-6.305197010869565e-05
7.969068444293477e-05
0.00016069495159646739
0.00016463569972826087
0.0001160331394361413
4.4223951256793476e-05
-3.065026324728261e-05
-9.151292883831521e-05
-0.00011165453040081521
-7.399849269701087e-05
8.319357167119564e-06
9.983228600543478e-05
0.00016813858695652174
0.00020448104194972826
0.00021061109459918477
0.00018828018851902174
0.0001414290718410326
8.494501528532609e-05
3.721817680027174e-05
8.757218070652174e-07
-3.634245499320652e-05
-9.501581606657609e-05
-0.0001869666058084239
-0.00030956765879755434
-0.0004347958772078804
-0.0005035400390625
-0.00045231031334918475
-0.0002679708729619565
-1.970374065896739e-05
0.0001869666058084239
0.0002876746136209239
0.0002881124745244565
0.00023513130519701086
0.00017470650050951088
0.00013004468834918478
0.00010552447775135868
9.676725968070652e-05
0.00010158372961956521
0.00012391463569972824
0.00015850564707880433
0.00018258799677309782
0.00016507356063179347
9.895656419836956e-05
1.0946522588315217e-05
-5.954908288043478e-05
-9.326437245244564e-05
-9.457795516304348e-05
-7.399849269701087e-05
-2.8460958729619564e-05
4.991614300271739e-05
0.00014712126358695652
0.0002320662788722826
0.00028417172639266303
0.0003086919369904891
0.0003108812415081522
0.00027629023012907606
0.00018871804942255434
5.5170473845108694e-05
-9.063720703124999e-05
-0.00020491890285326085
-0.00025395932404891303
-0.00023119055706521737
-0.00016463569972826087
-0.00010771378226902174
-0.00010377303413722825
-0.00015981922978940217
-0.00024520210597826086
-0.00031657343325407607
-0.00034021792204483694
-0.00030081044072690217
-0.0002066703464673913
-9.063720703124999e-05
-4.378609035326087e-07
3.1088124150815216e-05
1.2260105298913043e-05
-2.1893045176630434e-05
-4.4223951256793476e-05
-5.341903023097826e-05
-6.173838739809782e-05
-7.224704908288043e-05
-8.056640624999999e-05
-7.356063179347826e-05
-3.634245499320652e-05
3.50288722826087e-05
0.0001164710003396739
0.00016419783882472825
0.00015587848165760868
0.00010640019955842391
5.0791864809782605e-05
7.881496263586956e-06
-2.4082349694293478e-05
-5.035400390625e-05
-5.692191745923913e-05
-2.977454144021739e-05
1.8828018851902173e-05
5.867336107336956e-05
7.925282353940217e-05
0.00010771378226902174
0.0001707657523777174
0.0002478292713994565
0.00028110670006793476
0.0002263740871263587
9.063720703124999e-05
-7.531207540760869e-05
-0.00021280039911684783
-0.0002872367527173913
-0.00029949685801630433
-0.00026928445567255433
-0.0002123625382133152
-0.00012916896654211957
-1.5762992527173912e-05
0.00011209239130434782
0.00021805472995923913
0.0002596515157948369
0.00022111975628396737
0.00012873110563858695
2.4520210597826086e-05
-6.305197010869565e-05
-0.00012435249660326086
-0.0001514998726222826
-0.00013310971467391303
-6.086266559103261e-05
4.991614300271739e-05
0.0001563163425611413
0.00020491890285326085
0.00017514436141304347
9.764298148777174e-05
2.977454144021739e-05
7.443635360054348e-06
2.4520210597826086e-05
5.648405655570652e-05
9.063720703124999e-05
0.00012916896654211957
0.00017295505689538042
0.00020973537279211956
0.00021980617357336956
0.00018565302309782607
0.0001059623386548913
4.378609035326087e-07
-9.282651154891303e-05
-0.00014405623726222825
-0.0001475591244904891
-0.00012041174847146739
-8.100426715353261e-05
-4.291036854619565e-05
-2.2330906080163042e-05
-3.590459408967391e-05
-7.662565811820652e-05
-0.00010333517323369564
-7.137132727581522e-05
7.005774456521739e-06
5.954908288043478e-05
2.2330906080163042e-05
-8.58207370923913e-05
-0.00018258799677309782
-0.00020579462466032607
-0.00016463569972826087
-0.00011296811311141304
-8.625859799592391e-05
-7.531207540760869e-05
-5.5170473845108694e-05
-1.970374065896739e-05
1.970374065896739e-05
6.392769191576087e-05
0.00012654180112092392
0.00020404318104619564
0.00025177001953125
0.00021498970363451086
8.844790251358695e-05
-7.356063179347826e-05
-0.00020360532014266304
-0.00026840873386548914
-0.00027585236922554346
-0.00025089429772418476
-0.00020929751188858694
-0.00014405623726222825
-4.291036854619565e-05
7.312277088994565e-05
0.0001466834026834239
0.00012829324473505435
3.5466733186141305e-05
-5.648405655570652e-05
-8.494501528532609e-05
-5.429475203804348e-05
-1.620085343070652e-05
7.005774456521739e-06
4.991614300271739e-05
0.00014186693274456522
0.00024038563603940216
0.0002574622112771739
0.00015938136888586955
3.940748131793478e-06
-0.00012391463569972824
-0.00018652874490489128
-0.00019309665845788042
-0.00016069495159646739
-9.764298148777174e-05
-2.4958071501358695e-05
2.4520210597826086e-05
3.721817680027174e-05
3.50288722826087e-05
5.911122197690217e-05
0.00012654180112092392
0.00021323826002038042
0.00027147376019021736
0.00026578156844429346
0.000201416015625
0.0001164710003396739
4.55375339673913e-05
-1.313582710597826e-06
-3.459101137907609e-05
-5.998694378396739e-05
-7.399849269701087e-05
-7.049560546875e-05
-5.385689113451087e-05
-3.4153150475543474e-05
-1.8390157948369565e-05
-3.5028872282608694e-06
1.663871433423913e-05
4.1596785835597826e-05
6.261410920516304e-05
7.093346637228261e-05
6.480341372282608e-05
4.904042119565217e-05
3.4153150475543474e-05
3.240170686141304e-05
4.247250764266304e-05
4.8602560292119564e-05
3.634245499320652e-05
4.378609035326087e-06
-4.334822944972826e-05
-0.00010771378226902174
-0.00017996083135190217
-0.00023425558338994564
-0.0002473914104959239
-0.00022024403447690216
-0.0001720793350883152
-0.0001160331394361413
-5.4732612941576086e-05
7.881496263586956e-06
6.217624830163043e-05
9.895656419836956e-05
0.00012041174847146739
0.00013048254925271738
0.00012303891389266303
8.406929347826087e-05
1.5325131623641304e-05
-5.166758661684782e-05
-7.793924082880434e-05
-5.867336107336956e-05
-3.283956776494565e-05
-4.991614300271739e-05
-0.0001256660793138587
-0.00023337986158288043
-0.00031657343325407607
-0.00032445492951766304
-0.0002469535495923913
-0.00012873110563858695
-3.1525985054347824e-05
1.663871433423913e-05
3.5466733186141305e-05
5.954908288043478e-05
0.00010552447775135868
0.0001615706734035326
0.0002009781547214674
0.0002018538765285326
0.00016507356063179347
0.00010990308678668478
6.436555281929347e-05
4.597539487092391e-05
5.692191745923913e-05
7.969068444293477e-05
9.282651154891303e-05
8.669645889945652e-05
6.61169964334239e-05
4.2034646739130435e-05
2.627165421195652e-05
2.7585236922554347e-05
4.072106402853261e-05
4.334822944972826e-05
1.620085343070652e-05
-3.459101137907609e-05
-7.925282353940217e-05
-9.10750679347826e-05
-6.436555281929347e-05
-1.0508661684782609e-05
5.604619565217391e-05
0.00012479035750679349
0.00017733366593070652
0.0001922209366508152
0.00015325131623641303
6.699271824048912e-05
-3.984534222146739e-05
-0.0001322339928668478
-0.00017426863960597825
-0.0001409912109375
-4.1596785835597826e-05
7.399849269701087e-05
0.00014799698539402173
0.00015894350798233695
0.00012916896654211957
7.969068444293477e-05
1.313582710597826e-06
-0.00011822244395380434
-0.00025395932404891303
-0.0003489751401154891
-0.0003629866890285326
-0.0003021240234375
-0.00020054029381793477
-9.457795516304348e-05
-7.443635360054348e-06
5.210544752038043e-05
9.019934612771738e-05
0.00011997388756793478
0.00015237559442934782
0.00018390157948369563
0.00020404318104619564
0.00021411398182744564
0.00022812553074048913
0.00024345066236413043
0.0002325041397758152
0.00017339291779891304
8.757218070652174e-05
1.751443614130435e-05
-1.751443614130435e-05
-3.50288722826087e-05
-5.7797639266304343e-05
-9.58915378736413e-05
-0.00015368917713994565
-0.0002377584706182065
-0.00033671503481657607
-0.00040283203125
-0.00037787395974864127
-0.00025571076766304346
-0.00010245945142663043
-2.627165421195652e-06
1.4887270720108696e-05
-6.130052649456522e-06
-1.663871433423913e-05
-8.319357167119564e-06
-1.0508661684782609e-05
-3.896962041440217e-05
-7.268490998641304e-05
-7.487421450407608e-05
-2.4958071501358695e-05
6.480341372282608e-05
0.00015456489894701087
0.00019134521484375
0.00015237559442934782
7.049560546875e-05
8.757218070652174e-06
0.0
2.714737601902174e-05
6.480341372282608e-05
0.00011209239130434782
0.00017426863960597825
0.00022418478260869564
0.00020929751188858694
0.00011165453040081521
-2.1017323369565217e-05
-0.00011515741762907608
-0.00013923976732336957
-0.00012128747027853261
-0.0001011458687160326
-9.195078974184782e-05
-8.056640624999999e-05
-5.648405655570652e-05
-2.4082349694293478e-05
4.816469938858695e-06
2.276876698369565e-05
3.3715289572010865e-05
5.56083347486413e-05
0.00010333517323369564
0.0001764579441236413
0.00024958071501358697
0.0002850474481997282
0.00026140295940896735
0.00018521516219429347
7.487421450407608e-05
-5.867336107336956e-05
-0.000201416015625
-0.00031219482421875
-0.0003441586701766304
-0.0002867988918138587
-0.00018477730129076085
-0.00010946522588315217
-0.00011209239130434782
-0.00019484810207201085
-0.0003082540760869565
-0.0003765603770380435
-0.00034065578294836953
-0.0001917830757472826
2.1017323369565217e-05
0.0002219954780910326
0.0003537916100543478
0.0004045834748641304
0.00039538839588994565
0.00035247802734374997
0.00029205322265625
0.00022024403447690216
0.00013573688009510868
4.247250764266304e-05
-3.7656037703804346e-05
-8.012854534646738e-05
-8.319357167119565e-05
-7.312277088994565e-05
-7.356063179347826e-05
-7.969068444293477e-05
-6.699271824048912e-05
-2.4520210597826086e-05
2.4958071501358695e-05
5.1229725713315214e-05
5.035400390625e-05
4.4661812160326084e-05
5.692191745923913e-05
9.676725968070652e-05
0.0001615706734035326
0.00023556916610054346
0.0002832960045855978
0.00027541450832201087
0.00021849259086277172
0.0001414290718410326
5.604619565217391e-05
-5.5170473845108694e-05
-0.00021148681640625
-0.00039582625679347825
-0.0005547697647758151
-0.0006217624830163043
-0.0005556454865828804
-0.0003739332116168478
-0.00015281345533288044
1.751443614130435e-05
9.370223335597826e-05
0.0001007080078125
9.720512058423913e-05
0.00011515741762907608
0.0001409912109375
0.00015106201171875
0.00014405623726222825
0.00013179613196331522
0.00010727592136548913
4.772683848505435e-05
-4.904042119565217e-05
-0.00015412703804347825
-0.00023513130519701086
-0.00028373386548913044
-0.00030124830163043477
-0.0002776038128396739
-0.00020054029381793477
-7.925282353940217e-05
5.692191745923913e-05
0.00018039869225543477
0.00026534370754076087
0.00029073963994565217
0.00025527290675951087
0.00018302585767663042
0.00011165453040081521
6.261410920516304e-05
3.721817680027174e-05
3.1525985054347824e-05
4.509967306385869e-05
7.049560546875e-05
8.976148522418478e-05
9.063720703124999e-05
8.056640624999999e-05
6.918202275815218e-05
4.991614300271739e-05
1.2260105298913043e-05
-2.8460958729619564e-05
-4.115892493206522e-05
-1.7952297044836957e-05
7.005774456521739e-06
-3.065026324728261e-06
-4.115892493206522e-05
-6.830630095108695e-05
-6.786844004755434e-05
-6.436555281929347e-05
-8.625859799592391e-05
-0.00012172533118206522
-0.00012873110563858695
-8.056640624999999e-05
8.757218070652174e-07
6.56791355298913e-05
7.925282353940217e-05
4.4661812160326084e-05
-1.0508661684782609e-05
-5.7359778362771735e-05
-7.618779721467391e-05
-6.173838739809782e-05
-1.926587975543478e-05
3.678031589673913e-05
9.10750679347826e-05
0.00013004468834918478
0.00013792618461277173
8.450715438179348e-05
-5.4732612941576086e-05
-0.00026315440302309784
-0.0004632568359375
-0.0005578347911005435
-0.0004908420728600544
-0.00028855033542798914
-4.247250764266304e-05
0.00015193773352581522
0.00025571076766304346
0.00028592317000679347
0.00027891739555027174
0.00025352146314538043
0.0002123625382133152
0.00015894350798233695
0.00010333517323369564
5.4732612941576086e-05
1.313582710597826e-05
-2.320662788722826e-05
-4.2034646739130435e-05
-1.8828018851902173e-05
5.210544752038043e-05
0.0001501862899116848
0.00023819633152173913
0.00028636103091032606
0.00027935525645380433
0.00021542756453804348
0.00010902736497961956
-1.5325131623641304e-05
-0.00013048254925271738
-0.00021148681640625
-0.00023994777513586957
-0.00020798392917798913
-0.00013092041015625
-4.8164699388586956e-05
2.627165421195652e-06
1.5325131623641304e-05
8.757218070652174e-06
1.313582710597826e-06
-5.6921917459239125e-06
-2.0141601562499998e-05
-4.4661812160326084e-05
-8.012854534646738e-05
-0.00012654180112092392
-0.00017032789147418477
-0.00018390157948369563
-0.00014318051545516303
-5.254330842391304e-05
4.947828209918478e-05
0.00011953602666440217
0.00013880190641983695
0.00012260105298913043
8.669645889945652e-05
3.283956776494565e-05
-3.590459408967391e-05
-9.720512058423913e-05
-0.0001221631920855978
-0.00010421089504076086
-6.217624830163043e-05
-2.057946246603261e-05
2.1893045176630435e-06
0.0
-2.583379330842391e-05
-5.341903023097826e-05
-5.0791864809782605e-05
6.130052649456522e-06
0.00011690886124320651
0.0002491428541100543
0.00034985086192255435
0.00036605171535326084
0.0002732252038043478
9.501581606657609e-05
-0.00010508661684782608
-0.0002570243503736413
-0.0003161355723505435
-0.0002828581436820652
-0.0001869666058084239
-6.61169964334239e-05
4.728897758152174e-05
0.00012785538383152173
0.0001554406207540761
0.0001322339928668478
8.58207370923913e-05
5.166758661684782e-05
4.685111667798913e-05
6.436555281929347e-05
8.187998896059783e-05
8.056640624999999e-05
4.4661812160326084e-05
-4.334822944972826e-05
-0.0001909073539402174
-0.0003643002717391304
-0.0004812091329823369
-0.00045668892238451085
-0.0002723494819972826
7.443635360054348e-06
0.00028548530910326087
0.0004882149074388587
0.0005753492272418478
0.0005280602496603261
0.00036035952360733694
0.00013529901919157608
-6.874416185461957e-05
-0.00021061109459918477
-0.0002802309782608696
-0.00026534370754076087
-0.00015762992527173911
9.63293987771739e-06
0.00016244639521059782
0.0002421370796535326
0.00024826713230298913
0.00021498970363451086
0.00016069495159646739
7.706351902173912e-05
-3.1525985054347824e-05
-0.00013004468834918478
-0.00017733366593070652
-0.00017339291779891304
-0.00016025709069293476
-0.00017733366593070652
-0.0002320662788722826
-0.00030431332795516304
-0.0003691167416779891
-0.0004019563094429348
-0.0003743710725203804
-0.00026840873386548914
-9.54536769701087e-05
9.676725968070652e-05
0.0002469535495923913
0.00031657343325407607
0.0003073783542798913
0.00024563996688179346
0.00014580768087635868
8.757218070652174e-06
-0.00013705046280570652
-0.00022812553074048913
-0.0002176168690557065
-0.00012697966202445651
-2.583379330842391e-05
3.940748131793478e-05
7.268490998641304e-05
9.457795516304348e-05
0.00010990308678668478
0.00011034094769021739
8.844790251358695e-05
3.984534222146739e-05
-3.240170686141304e-05
-9.895656419836956e-05
-9.851870329483695e-05
1.0070800781249999e-05
0.0001970374065896739
0.00037261962890624997
0.00046150539232336956
0.00045143459154211956
0.0003695546025815217
0.0002368827488111413
6.874416185461957e-05
-0.00010202159052309782
-0.00023162841796875
-0.0002951182489809782
-0.00030606477156929347
-0.0002924910835597826
-0.0002727873429008152
-0.0002491428541100543
-0.00021367612092391305
-0.00015981922978940217
-8.801004161005434e-05
-1.4887270720108696e-05
3.590459408967391e-05
5.210544752038043e-05
3.634245499320652e-05
-3.5028872282608694e-06
-6.392769191576087e-05
-0.00012654180112092392
-0.00014580768087635868
-8.363143257472826e-05
3.1088124150815216e-05
0.00010771378226902174
7.662565811820652e-05
-3.3715289572010865e-05
-0.00012522821841032608
-0.00012479035750679349
-4.291036854619565e-05
4.772683848505435e-05
9.151292883831521e-05
8.669645889945652e-05
6.130052649456522e-05
2.583379330842391e-05
-2.320662788722826e-05
-7.312277088994565e-05
-7.969068444293477e-05
-5.6921917459239125e-06
0.0001366126019021739
0.0002850474481997282
0.0003721817680027174
0.00038050112516983695
0.0003389043393342391
0.00027016017747961957
0.00016463569972826087
1.751443614130435e-05
-0.00013092041015625
-0.00021367612092391305
-0.00020010243291440218
-0.00012654180112092392
-6.130052649456522e-05
-4.378609035326087e-05
-6.392769191576087e-05
-8.801004161005434e-05
-9.326437245244564e-05
-8.363143257472826e-05
-7.224704908288043e-05
-6.480341372282608e-05
-5.604619565217391e-05
-3.327742866847826e-05
8.757218070652174e-06
6.04248046875e-05
9.501581606657609e-05
9.238865064538043e-05
5.823550016983695e-05
1.4011548913043478e-05
-2.1455184273097826e-05
-4.4223951256793476e-05
-5.5170473845108694e-05
-5.5170473845108694e-05
-4.685111667798913e-05
-3.678031589673913e-05
-3.5466733186141305e-05
-5.5170473845108694e-05
-0.00010508661684782608
-0.00017120361328124998
-0.00020404318104619564
-0.00014405623726222825
7.005774456521739e-06
0.00016945216966711955
0.0002473914104959239
0.00022418478260869564
0.00016375997792119566
0.0001313582710597826
0.00013442329738451087
0.00014055335003396738
0.00012785538383152173
0.00010333517323369564
8.187998896059783e-05
7.180918817934783e-05
6.61169964334239e-05
4.947828209918478e-05
9.195078974184782e-06
-3.7656037703804346e-05
-5.035400390625e-05
-8.319357167119564e-06
3.634245499320652e-05
4.378609035326087e-07
-0.00012829324473505435
-0.0002478292713994565
-0.0002469535495923913
-0.00013179613196331522
-1.5325131623641304e-05
2.1893045176630434e-05
8.319357167119564e-06
1.4011548913043478e-05
4.904042119565217e-05
6.261410920516304e-05
2.4082349694293478e-05
-3.1088124150815216e-05
-4.8602560292119564e-05
-2.0141601562499998e-05
9.63293987771739e-06
-3.940748131793478e-06
-6.348983101222826e-05
-0.0001256660793138587
-0.00012916896654211957
-3.50288722826087e-05
0.00012829324473505435
0.00025877579398777173
0.00023732060971467392
2.320662788722826e-05
-0.00030081044072690217
-0.0005823550016983695
-0.0006966366975203804
-0.0006130052649456521
-0.0003826904296875
-8.844790251358695e-05
0.00018784232761548912
0.0003844418733016304
0.00046763544497282605
0.00044661812160326085
0.0003594838018002717
0.0002469535495923913
0.0001414290718410326
6.61169964334239e-05
3.021240234375e-05
1.970374065896739e-05
1.4887270720108696e-05
8.757218070652174e-06
8.319357167119564e-06
1.357368800951087e-05
1.0508661684782609e-05
-9.195078974184782e-06
-3.4153150475543474e-05
-3.721817680027174e-05
-4.378609035326087e-07
6.56791355298913e-05
0.00012741752292798914
0.00014318051545516303
9.063720703124999e-05
-1.4887270720108696e-05
-0.000120849609375
-0.00016419783882472825
-0.00012654180112092392
-4.904042119565217e-05
9.63293987771739e-06
3.240170686141304e-05
3.940748131793478e-05
4.55375339673913e-05
4.115892493206522e-05
1.4887270720108696e-05
-1.663871433423913e-05
-3.1525985054347824e-05
-2.977454144021739e-05
-3.590459408967391e-05
-6.655485733695651e-05
-0.00011384383491847825
-0.0001563163425611413
-0.00018039869225543477
-0.00018039869225543477
-0.00015894350798233695
-0.00012172533118206522
-7.837710173233695e-05
-3.8093898607336954e-05
-1.0070800781249999e-05
2.1893045176630435e-06
1.0508661684782609e-05
3.678031589673913e-05
9.808084239130435e-05
0.00018346371858016304
0.00024388852326766303
0.0002320662788722826
0.00015193773352581522
5.954908288043478e-05
5.6921917459239125e-06
-7.443635360054348e-06
-8.757218070652174e-06
-6.56791355298913e-06
4.378609035326087e-06
4.378609035326087e-07
-6.392769191576087e-05
-0.00018433944038722826
-0.00028110670006793476
-0.00028460958729619563
-0.00022111975628396737
-0.00017733366593070652
-0.00018915591032608696
-0.0002066703464673913
-0.00015762992527173911
-2.5395932404891303e-05
0.00014230479364809781
0.00027891739555027174
0.00034591011379076083
0.00034591011379076083
0.0003056269106657609
0.00025177001953125
0.00019835098930027172
0.00013967762822690217
5.954908288043478e-05
-3.459101137907609e-05
-9.282651154891303e-05
-5.385689113451087e-05
8.713431980298913e-05
0.0002670951511548913
0.0004098378057065217
0.000485587742017663
0.0005048536217730978
0.00046982474949048913
0.00035554305366847824
0.0001462455417798913
-0.00011340597401494565
-0.00032533065132472823
-0.0004146542756453804
-0.0003923233695652174
-0.0003257685122282609
-0.0002570243503736413
-0.00018258799677309782
-9.895656419836956e-05
-3.021240234375e-05
-5.254330842391304e-06
-2.364448879076087e-05
-5.998694378396739e-05
-9.151292883831521e-05
-0.00010858950407608696
-0.00010377303413722825
-7.180918817934783e-05
-1.663871433423913e-05
3.8093898607336954e-05
6.261410920516304e-05
4.641325577445652e-05
-2.1893045176630435e-06
-7.662565811820652e-05
-0.00017908510954483696
-0.0003025618843410326
-0.00041115138841711955
-0.0004505588697350543
-0.0003888204823369565
-0.00024958071501358697
-0.00010245945142663043
-1.357368800951087e-05
8.757218070652174e-06
8.319357167119564e-06
2.4958071501358695e-05
6.130052649456522e-05
9.676725968070652e-05
0.00012347677479619565
0.00015456489894701087
0.00019484810207201085
0.00022068189538043478
0.0001974752674932065
0.000120849609375
2.057946246603261e-05
-6.56791355298913e-05
-0.00012435249660326086
-0.00014318051545516303
-9.457795516304348e-05
4.072106402853261e-05
0.00023513130519701086
0.0004133406929347826
0.0005083565090013587
0.0004882149074388587
0.00034722369650135867
0.00010027014690896739
-0.00019397238026494564
-0.000435233738111413
-0.0005328767195991848
-0.0004702626103940217
-0.00030475118885869563
-0.00011034094769021739
6.874416185461957e-05
0.00021411398182744564
0.00030956765879755434
0.00033978006114130434
0.0003034376061480978
0.0002176168690557065
0.00010946522588315217
1.2260105298913043e-05
-4.55375339673913e-05
-5.998694378396739e-05
-4.728897758152174e-05
-2.7585236922554347e-05
0.0
4.641325577445652e-05
0.00011515741762907608
0.00018740446671195653
0.00023819633152173913
0.0002491428541100543
0.00020885965098505434
0.00011034094769021739
-3.8093898607336954e-05
-0.00020272959833559783
-0.00033189856487771737
-0.00038312829059103257
-0.0003375907566236413
-0.00020885965098505434
-4.8602560292119564e-05
7.00577445652174e-05
9.720512058423913e-05
4.2034646739130435e-05
-3.50288722826087e-05
-7.487421450407608e-05
-6.436555281929347e-05
-2.7585236922554347e-05
1.4449409816576086e-05
6.348983101222826e-05
0.00012172533118206522
0.00017032789147418477
0.00017996083135190217
0.00013792618461277173
6.173838739809782e-05
-1.2697966202445651e-05
-5.604619565217391e-05
-6.217624830163043e-05
-5.4732612941576086e-05
-6.56791355298913e-05
-0.00010902736497961956
-0.0001768958050271739
-0.00024257494055706521
-0.00027410092561141303
-0.0002526457413383152
-0.00018346371858016304
-9.151292883831521e-05
-5.254330842391304e-06
5.56083347486413e-05
8.757218070652174e-05
9.895656419836956e-05
9.939442510190217e-05
8.363143257472826e-05
3.853175951086956e-05
-3.8093898607336954e-05
-0.00013048254925271738
-0.00021323826002038042
-0.00025614862856657605
-0.0002368827488111413
-0.00015762992527173911
-5.56083347486413e-05
2.5395932404891303e-05
6.04248046875e-05
4.641325577445652e-05
-4.378609035326087e-06
-7.443635360054348e-05
-0.00013573688009510868
-0.00015325131623641303
-9.414009425951087e-05
4.291036854619565e-05
0.00020885965098505434
0.00032533065132472823
0.0003441586701766304
0.00027541450832201087
0.0001716414741847826
9.282651154891303e-05
8.012854534646738e-05
0.00013529901919157608
0.0002176168690557065
0.0002675330120584239
0.00024826713230298913
0.00016945216966711955
6.874416185461957e-05
-1.5762992527173912e-05
-7.049560546875e-05
-0.00010421089504076086
-0.00012785538383152173
-0.00013529901919157608
-0.00011253025220788043
-5.604619565217391e-05
1.8828018851902173e-05
8.53828761888587e-05
0.00011340597401494565
8.713431980298913e-05
1.926587975543478e-05
-5.604619565217391e-05
-0.0001112166694972826
-0.00013705046280570652
-0.00012785538383152173
-7.662565811820652e-05
5.6921917459239125e-06
7.969068444293477e-05
0.0001011458687160326
5.692191745923913e-05
-2.8023097826086955e-05
-0.00011866030485733696
-0.00018828018851902174
-0.0002228711998980978
-0.0002066703464673913
-0.00012654180112092392
1.0946522588315217e-05
0.0001663871433423913
0.0002828581436820652
0.0003279578167459239
0.0003156977114470109
0.00028154456097146736
0.0002377584706182065
0.0001707657523777174
7.180918817934783e-05
-3.721817680027174e-05
-0.00011909816576086957
-0.00015719206436820652
-0.0001707657523777174
-0.00019309665845788042
-0.00022856339164402172
-0.0002473914104959239
-0.00023162841796875
-0.00020448104194972826
-0.00019572382387907607
-0.00018959377122961955
-0.00013792618461277173
-2.977454144021739e-05
7.969068444293477e-05
0.00012697966202445651
0.00010727592136548913
7.57499363111413e-05
7.57499363111413e-05
9.808084239130435e-05
0.00010289731233016304
6.918202275815218e-05
9.63293987771739e-06
-4.772683848505435e-05
-9.195078974184782e-05
-0.00012916896654211957
-0.00016419783882472825
-0.00018652874490489128
-0.00017952297044836955
-0.00013748832370923914
-7.00577445652174e-05
0.0
5.166758661684782e-05
8.056640624999999e-05
0.00010421089504076086
0.0001366126019021739
0.00016507356063179347
0.00016507356063179347
0.0001313582710597826
8.801004161005434e-05
6.655485733695651e-05
8.757218070652174e-05
0.00014712126358695652
0.00021367612092391305
0.00023600702700407608
0.00017120361328124998
1.2260105298913043e-05
-0.000201416015625
-0.00039582625679347825
-0.000485587742017663
-0.00042078432829483696
-0.0002176168690557065
4.4223951256793476e-05
0.00027147376019021736
0.00040151844853940214
0.0004199086064877717
0.00034766155740489126
0.0002176168690557065
6.699271824048912e-05
-6.436555281929347e-05
-0.00014230479364809781
-0.00015500275985054347
-0.00012260105298913043
-8.144212805706522e-05
-5.7797639266304343e-05
-5.210544752038043e-05
-5.210544752038043e-05
-4.728897758152174e-05
-3.240170686141304e-05
-2.1893045176630435e-06
4.2034646739130435e-05
8.888576341711956e-05
0.00011909816576086957
0.00011515741762907608
6.743057914402173e-05
-1.4887270720108696e-05
-9.895656419836956e-05
-0.0001414290718410326
-0.00012041174847146739
-5.341903023097826e-05
1.7076575237771737e-05
5.604619565217391e-05
5.56083347486413e-05
3.4153150475543474e-05
1.357368800951087e-05
4.378609035326087e-07
-1.7076575237771737e-05
-5.7359778362771735e-05
-0.00012960682744565216
-0.0002215576171875
-0.00029949685801630433
-0.00032664423403532607
-0.0002867988918138587
-0.00018871804942255434
-5.911122197690217e-05
6.655485733695651e-05
0.00015719206436820652
0.00020491890285326085
0.00022593622622282608
0.00024126135784646738
0.0002570243503736413
0.00026052723760190216
0.00023513130519701086
0.00017908510954483696
0.00010640019955842391
3.021240234375e-05
-4.685111667798913e-05
-0.00012303891389266303
-0.00017820938773777174
-0.0001821501358695652
-0.00011428169582201086
1.5762992527173912e-05
0.00016507356063179347
0.0002649058466372283
0.00025877579398777173
0.00014580768087635868
-1.751443614130435e-05
-0.00016507356063179347
-0.00024257494055706521
-0.0002119246773097826
-6.61169964334239e-05
0.00013442329738451087
0.00027935525645380433
0.0002876746136209239
0.0001768958050271739
2.933668053668478e-05
-8.58207370923913e-05
-0.00015719206436820652
-0.00019353451936141304
-0.00019265879755434783
-0.00015281345533288044
-9.54536769701087e-05
-4.947828209918478e-05
-1.7952297044836957e-05
9.195078974184782e-06
2.2330906080163042e-05
-5.6921917459239125e-06
-7.837710173233695e-05
-0.00015062415081521738
-0.00016945216966711955
-0.00012041174847146739
-3.196384595788043e-05
5.385689113451087e-05
0.00011209239130434782
0.00013705046280570652
0.0001409912109375
0.00014318051545516303
0.00015193773352581522
0.0001475591244904891
0.00010027014690896739
1.5325131623641304e-05
-6.04248046875e-05
-9.414009425951087e-05
-0.0001007080078125
-0.00011384383491847825
-0.00013442329738451087
-0.00012785538383152173
-6.56791355298913e-05
4.8164699388586956e-05
0.00017733366593070652
0.0002679708729619565
0.0002732252038043478
0.00017514436141304347
4.378609035326087e-06
-0.00016113281249999998
-0.0002368827488111413
-0.00019966457201086956
-0.00011471955672554347
-6.56791355298913e-05
-7.268490998641304e-05
-9.151292883831521e-05
-8.713431980298913e-05
-6.786844004755434e-05
-5.604619565217391e-05
-5.166758661684782e-05
-4.291036854619565e-05
-2.4520210597826086e-05
-8.757218070652174e-07
2.5395932404891303e-05
5.385689113451087e-05
7.57499363111413e-05
7.093346637228261e-05
2.7585236922554347e-05
-3.896962041440217e-05
-9.282651154891303e-05
-0.00010508661684782608
-7.925282353940217e-05
-4.247250764266304e-05
-1.8390157948369565e-05
-1.0508661684782609e-05
-8.757218070652174e-06
-3.065026324728261e-06
1.0070800781249999e-05
3.50288722826087e-05
6.961988366168479e-05
0.0001059623386548913
0.00012829324473505435
0.00012479035750679349
9.720512058423913e-05
6.436555281929347e-05
4.334822944972826e-05
3.283956776494565e-05
1.926587975543478e-05
4.378609035326087e-07
-1.1822244395380435e-05
-9.195078974184782e-06
9.195078974184782e-06
3.853175951086956e-05
6.655485733695651e-05
6.961988366168479e-05
3.021240234375e-05
-3.984534222146739e-05
-9.632939877717391e-05
-8.932362432065217e-05
-4.816469938858695e-06
0.00012435249660326086
0.00024870499320652173
0.0003310228430706522
0.00035554305366847824
0.00030912979789402174
0.00019791312839673912
7.00577445652174e-05
-1.2697966202445651e-05
-4.8164699388586956e-05
-0.00010946522588315217
-0.00026403012483016303
-0.00048296057659646735
-0.0006445312499999999
-0.000632271144701087
-0.0004299794072690217
-0.00013573688009510868
0.00011822244395380434
0.00025308360224184784
0.0002649058466372283
0.00019572382387907607
9.939442510190217e-05
2.4958071501358695e-05
-3.940748131793478e-06
5.6921917459239125e-06
3.459101137907609e-05
6.874416185461957e-05
9.632939877717391e-05
0.00010245945142663043
7.925282353940217e-05
3.327742866847826e-05
-1.0946522588315217e-05
-2.8460958729619564e-05
-1.4449409816576086e-05
8.757218070652174e-06
1.751443614130435e-05
9.195078974184782e-06
-5.254330842391304e-06
-3.4153150475543474e-05
-8.757218070652174e-05
-0.00014580768087635868
-0.00016200853430706522
-0.00010771378226902174
-2.1893045176630435e-06
0.00010902736497961956
0.0001961616847826087
0.0002522078804347826
0.00027541450832201087
0.00026096509850543476
0.00020842179008152172
0.00013179613196331522
5.429475203804348e-05
-1.0508661684782609e-05
-6.261410920516304e-05
-0.00010552447775135868
-0.0001361747409986413
-0.00015325131623641303
-0.00015894350798233695
-0.00015106201171875
-0.00012260105298913043
-8.625859799592391e-05
-7.312277088994565e-05
-0.00010158372961956521
-0.00015106201171875
-0.00019265879755434783
-0.00022506050441576086
-0.00026621942934782606
-0.0003126326851222826
-0.00032182776409646737
-0.0002443263841711956
-7.399849269701087e-05
0.00013267185377038043
0.0002955561098845109
0.0003643002717391304
0.0003489751401154891
0.00029599397078804347
0.00024169921875
0.00019441024116847826
0.00014318051545516303
8.231784986413044e-05
2.4958071501358695e-05
-9.63293987771739e-06
-1.663871433423913e-05
-1.2260105298913043e-05
-1.357368800951087e-05
-2.0141601562499998e-05
-1.0508661684782609e-05
2.627165421195652e-05
7.443635360054348e-05
0.00010333517323369564
0.0001059623386548913
0.00010245945142663043
0.00010027014690896739
7.180918817934783e-05
-1.0508661684782609e-05
-0.00012391463569972824
-0.00020010243291440218
-0.0001909073539402174
-0.00011077880859375
-1.5762992527173912e-05
4.0283203124999995e-05
3.5466733186141305e-05
-2.1455184273097826e-05
-0.0001011458687160326
-0.00015894350798233695
-0.00016113281249999998
-0.00010815164317255435
-3.853175951086956e-05
-2.1893045176630435e-06
-2.2330906080163042e-05
-8.450715438179348e-05
-0.00015368917713994565
-0.00019659954568614129
-0.0001909073539402174
-0.00013705046280570652
-6.392769191576087e-05
-1.0070800781249999e-05
1.1384383491847825e-05
2.364448879076087e-05
4.947828209918478e-05
8.363143257472826e-05
0.00010202159052309782
9.063720703124999e-05
5.210544752038043e-05
-3.940748131793478e-06
-6.961988366168479e-05
-0.00012391463569972824
-0.00012829324473505435
-5.341903023097826e-05
7.706351902173912e-05
0.00018740446671195653
0.00021017323369565215
0.00015106201171875
7.443635360054348e-05
3.021240234375e-05
1.4449409816576086e-05
0.0
-1.751443614130435e-05
-1.620085343070652e-05
1.663871433423913e-05
6.348983101222826e-05
8.932362432065217e-05
7.224704908288043e-05
1.7076575237771737e-05
-4.904042119565217e-05
-9.939442510190217e-05
-0.00012041174847146739
-0.00011953602666440217
-0.00011253025220788043
-0.00010508661684782608
-8.319357167119565e-05
-2.5395932404891303e-05
7.049560546875e-05
0.00017383077870244563
0.00023863419242527173
0.00023863419242527173
0.00018258799677309782
0.00010508661684782608
4.247250764266304e-05
1.2260105298913043e-05
8.319357167119564e-06
1.4011548913043478e-05
1.8828018851902173e-05
1.8828018851902173e-05
1.5762992527173912e-05
9.63293987771739e-06
-3.065026324728261e-06
-2.7585236922554347e-05
-6.305197010869565e-05
-9.58915378736413e-05
-0.00010683806046195652
-8.801004161005434e-05
-4.8164699388586956e-05
-7.881496263586956e-06
2.1455184273097826e-05
4.334822944972826e-05
6.699271824048912e-05
9.414009425951087e-05
0.0001160331394361413
0.000120849609375
0.00010245945142663043
6.086266559103261e-05
1.313582710597826e-06
-6.086266559103261e-05
-0.00010333517323369564
-0.0001059623386548913
-7.224704908288043e-05
-3.283956776494565e-05
-2.057946246603261e-05
-4.378609035326087e-05
-8.144212805706522e-05
-0.0001059623386548913
-0.00010640019955842391
-9.238865064538043e-05
-8.100426715353261e-05
-8.275571076766304e-05
-8.844790251358695e-05
-6.786844004755434e-05
6.130052649456522e-06
0.00012741752292798914
0.00024388852326766303
0.00029599397078804347
0.00026621942934782606
0.00019046949303668477
0.00012172533118206522
8.187998896059783e-05
4.991614300271739e-05
-6.56791355298913e-06
-9.54536769701087e-05
-0.00018740446671195653
-0.0002526457413383152
-0.00027935525645380433
-0.00026884659476902173
-0.00021367612092391305
-0.00011340597401494565
4.378609035326087e-06
9.019934612771738e-05
0.00011165453040081521
7.969068444293477e-05
2.8898819633152172e-05
-1.751443614130435e-05
-5.998694378396739e-05
-9.501581606657609e-05
-0.00010640019955842391
-7.881496263586956e-05
-2.1017323369565217e-05
4.2034646739130435e-05
8.844790251358695e-05
0.00010683806046195652
9.632939877717391e-05
6.392769191576087e-05
3.065026324728261e-05
2.057946246603261e-05
4.2034646739130435e-05
7.837710173233695e-05
9.808084239130435e-05
7.618779721467391e-05
1.0946522588315217e-05
-8.056640624999999e-05
-0.00017295505689538042
-0.00023950991423233694
-0.00025089429772418476
-0.00018521516219429347
-5.5170473845108694e-05
8.363143257472826e-05
0.00016813858695652174
0.00017733366593070652
0.00014055335003396738
0.00010245945142663043
8.144212805706522e-05
6.480341372282608e-05
3.590459408967391e-05
-1.0070800781249999e-05
-6.699271824048912e-05
-0.00012041174847146739
-0.00015062415081521738
-0.00013880190641983695
-8.450715438179348e-05
-1.4011548913043478e-05
4.291036854619565e-05
7.662565811820652e-05
0.0001007080078125
0.00012741752292798914
0.00015500275985054347
0.00016945216966711955
0.0001615706734035326
0.00013923976732336957
0.00013048254925271738
0.00016594928243885868
0.00024257494055706521
0.0003034376061480978
0.0002749766474184783
0.00013092041015625
-7.881496263586956e-05
-0.0002675330120584239
-0.00037480893342391305
-0.00039670197860054344
-0.00037130604619565213
-0.00034240722656249997
-0.0003310228430706522
-0.0003231413468070652
-0.0002824202827785326
-0.00018258799677309782
-3.8093898607336954e-05
9.851870329483695e-05
0.0001768958050271739
0.00018565302309782607
0.00015719206436820652
0.00012916896654211957
0.0001112166694972826
9.326437245244564e-05
7.443635360054348e-05
6.655485733695651e-05
7.224704908288043e-05
7.531207540760869e-05
6.874416185461957e-05
6.786844004755434e-05
8.406929347826087e-05
9.195078974184782e-05
5.341903023097826e-05
-2.5395932404891303e-05
-9.10750679347826e-05
-0.00010289731233016304
-8.494501528532609e-05
-9.895656419836956e-05
-0.00016770072605298912
-0.0002469535495923913
-0.00026884659476902173
-0.00020842179008152172
-9.414009425951087e-05
2.933668053668478e-05
0.00013267185377038043
0.0001961616847826087
0.00020054029381793477
0.00014493195906929346
6.217624830163043e-05
0.0
-1.970374065896739e-05
-2.057946246603261e-05
-4.2034646739130435e-05
-8.757218070652174e-05
-0.00011165453040081521
-7.180918817934783e-05
1.4011548913043478e-05
8.494501528532609e-05
0.00010421089504076086
9.063720703124999e-05
7.662565811820652e-05
6.480341372282608e-05
3.896962041440217e-05
-6.130052649456522e-06
-5.4732612941576086e-05
-8.713431980298913e-05
-0.0001011458687160326
-0.00010245945142663043
-8.932362432065217e-05
-5.4732612941576086e-05
-6.130052649456522e-06
3.853175951086956e-05
7.662565811820652e-05
0.00011997388756793478
0.00017295505689538042
0.00021367612092391305
0.00021104895550271737
0.00016332211701766304
0.00010771378226902174
8.144212805706522e-05
7.881496263586956e-05
5.648405655570652e-05
-6.56791355298913e-06
-7.487421450407608e-05
-9.939442510190217e-05
-8.363143257472826e-05
-8.319357167119565e-05
-0.00012916896654211957
-0.00018784232761548912
-0.00021323826002038042
-0.0002075460682744565
-0.00020885965098505434
-0.00022068189538043478
-0.00019922671110733693
-0.00010858950407608696
3.021240234375e-05
0.00016989003057065217
0.0002828581436820652
0.00035773235818614127
0.00037524679432744565
0.00032051418138586953
0.00021280039911684783
9.414009425951087e-05
-1.1384383491847825e-05
-0.00010858950407608696
-0.00019878885020380434
-0.00025614862856657605
-0.00025001857591711957
-0.0001817122749660326
-9.019934612771738e-05
-1.1822244395380435e-05
4.8602560292119564e-05
0.00010333517323369564
0.00015193773352581522
0.00017777152683423912
0.00016989003057065217
0.0001313582710597826
7.224704908288043e-05
3.940748131793478e-06
-5.56083347486413e-05
-9.151292883831521e-05
-0.00011165453040081521
-0.00014449409816576087
-0.0002062324855638587
-0.0002675330120584239
-0.00027059803838315217
-0.00017602008322010869
-3.940748131793478e-06
0.00017733366593070652
0.00030606477156929347
0.0003616731063179348
0.00035510519276494564
0.0002924910835597826
0.00017908510954483696
4.072106402853261e-05
-8.363143257472826e-05
-0.0001821501358695652
-0.00027016017747961957
-0.0003516023055366848
-0.0003870690387228261
-0.00032533065132472823
-0.00016419783882472825
2.977454144021739e-05
0.00017820938773777174
0.0002473914104959239
0.00025527290675951087
0.00023381772248641302
0.0002018538765285326
0.00016332211701766304
0.00011822244395380434
7.137132727581522e-05
3.4153150475543474e-05
1.620085343070652e-05
5.6921917459239125e-06
-1.8828018851902173e-05
-5.911122197690217e-05
-8.187998896059783e-05
-5.385689113451087e-05
1.0946522588315217e-05
5.5170473845108694e-05
3.021240234375e-05
-5.7797639266304343e-05
-0.00014712126358695652
-0.00017295505689538042
-0.00011734672214673912
-1.5325131623641304e-05
8.53828761888587e-05
0.00015587848165760868
0.0001764579441236413
0.00012741752292798914
7.881496263586956e-06
-0.00014230479364809781
-0.00025308360224184784
-0.00027016017747961957
-0.0001961616847826087
-8.144212805706522e-05
1.4887270720108696e-05
7.137132727581522e-05
9.764298148777174e-05
0.00010858950407608696
0.0001059623386548913
8.58207370923913e-05
5.298116932744565e-05
2.1893045176630434e-05
7.005774456521739e-06
6.56791355298913e-06
0.0
-3.50288722826087e-05
-9.808084239130435e-05
-0.00015938136888586955
-0.00018433944038722826
-0.0001615706734035326
-0.00010902736497961956
-5.823550016983695e-05
-3.065026324728261e-05
-2.670951511548913e-05
-2.8023097826086955e-05
-1.0070800781249999e-05
3.590459408967391e-05
9.282651154891303e-05
0.00012873110563858695
0.0001256660793138587
9.808084239130435e-05
7.531207540760869e-05
7.049560546875e-05
7.443635360054348e-05
7.618779721467391e-05
7.57499363111413e-05
7.706351902173912e-05
7.57499363111413e-05
6.392769191576087e-05
3.853175951086956e-05
7.005774456521739e-06
-1.4887270720108696e-05
-7.881496263586956e-06
3.721817680027174e-05
0.00010464875594429347
0.00015325131623641303
0.00015456489894701087
0.00011866030485733696
7.662565811820652e-05
4.772683848505435e-05
2.1455184273097826e-05
-1.5325131623641304e-05
-6.130052649456522e-05
-0.0001007080078125
-0.00012873110563858695
-0.0001501862899116848
-0.00015719206436820652
-0.00012128747027853261
-3.4153150475543474e-05
6.217624830163043e-05
0.0001007080078125
4.597539487092391e-05
-8.363143257472826e-05
-0.0002320662788722826
-0.00033189856487771737
-0.00033978006114130434
-0.00026315440302309784
-0.00014843484629755433
-3.5466733186141305e-05
6.348983101222826e-05
0.00015193773352581522
0.00022374692170516302
0.0002727873429008152
0.00029599397078804347
0.00028373386548913044
0.00021586542544157607
7.837710173233695e-05
-0.00010902736497961956
-0.0002832960045855978
-0.0003682410198709239
-0.00032489279042119564
-0.00018039869225543477
-5.254330842391304e-06
0.00013442329738451087
0.00021104895550271737
0.00022593622622282608
0.0001917830757472826
0.00012391463569972824
4.1596785835597826e-05
-3.1525985054347824e-05
-7.750137992527173e-05
-9.54536769701087e-05
-0.00010464875594429347
-0.00011559527853260869
-0.00010946522588315217
-5.823550016983695e-05
3.021240234375e-05
0.00011253025220788043
0.0001501862899116848
0.00014186693274456522
0.00011296811311141304
7.925282353940217e-05
4.4661812160326084e-05
1.4011548913043478e-05
-8.757218070652174e-07
6.130052649456522e-06
2.583379330842391e-05
3.634245499320652e-05
2.364448879076087e-05
-4.378609035326087e-07
-1.7076575237771737e-05
-2.1893045176630434e-05
-2.714737601902174e-05
-4.072106402853261e-05
-5.254330842391304e-05
-5.385689113451087e-05
-5.429475203804348e-05
-6.699271824048912e-05
-8.888576341711956e-05
-9.983228600543478e-05
-8.58207370923913e-05
-4.772683848505435e-05
1.7514436141304347e-06
4.685111667798913e-05
7.706351902173912e-05
9.457795516304348e-05
0.00010202159052309782
9.501581606657609e-05
6.436555281929347e-05
2.057946246603261e-05
-9.195078974184782e-06
-3.5028872282608694e-06
3.3715289572010865e-05
7.399849269701087e-05
8.932362432065217e-05
7.224704908288043e-05
2.933668053668478e-05
-3.3715289572010865e-05
-0.00011165453040081521
-0.00018127441406249998
-0.00021367612092391305
-0.00020535676375679348
-0.00018302585767663042
-0.0001663871433423913
-0.00014580768087635868
-9.676725968070652e-05
-1.620085343070652e-05
7.399849269701087e-05
0.00014493195906929346
0.00017820938773777174
0.00017514436141304347
0.0001475591244904891
0.00010640019955842391
5.429475203804348e-05
-3.940748131793478e-06
-5.604619565217391e-05
-8.231784986413044e-05
-7.224704908288043e-05
-3.678031589673913e-05
-8.757218070652174e-07
1.5762992527173912e-05
1.1384383491847825e-05
-6.130052649456522e-06
-2.320662788722826e-05
-2.583379330842391e-05
-1.2697966202445651e-05
1.313582710597826e-06
-2.1893045176630435e-06
-2.320662788722826e-05
-4.0283203124999995e-05
-3.1088124150815216e-05
2.1893045176630435e-06
4.072106402853261e-05
6.830630095108695e-05
8.406929347826087e-05
8.844790251358695e-05
6.918202275815218e-05
1.620085343070652e-05
-5.823550016983695e-05
-0.00012303891389266303
-0.00014974842900815217
-0.00012741752292798914
-5.7797639266304343e-05
4.291036854619565e-05
0.00013923976732336957
0.00018828018851902174
0.00016507356063179347
7.969068444293477e-05
-3.1088124150815216e-05
-0.00012654180112092392
-0.0001808365531589674
-0.00019003163213315218
-0.00015762992527173911
-8.450715438179348e-05
1.7952297044836957e-05
0.00011997388756793478
0.0001909073539402174
0.00021455184273097826
0.00019003163213315218
0.00012479035750679349
4.291036854619565e-05
-2.320662788722826e-05
-5.954908288043478e-05
-7.487421450407608e-05
-8.625859799592391e-05
-8.932362432065217e-05
-6.436555281929347e-05
-1.313582710597826e-06
7.531207540760869e-05
0.00011953602666440217
9.983228600543478e-05
3.240170686141304e-05
-3.984534222146739e-05
-8.53828761888587e-05
-0.00010245945142663043
-0.00010640019955842391
-0.00010421089504076086
-9.282651154891303e-05
-7.137132727581522e-05
-4.378609035326087e-05
-1.4011548913043478e-05
2.057946246603261e-05
5.254330842391304e-05
5.341903023097826e-05
-2.1893045176630435e-06
-0.00010508661684782608
-0.00019966457201086956
-0.00022506050441576086
-0.00016069495159646739
-3.984534222146739e-05
8.450715438179348e-05
0.00017383077870244563
0.0002075460682744565
0.00018433944038722826
0.00012741752292798914
7.706351902173912e-05
6.04248046875e-05
6.830630095108695e-05
7.137132727581522e-05
5.429475203804348e-05
3.327742866847826e-05
3.634245499320652e-05
6.61169964334239e-05
8.888576341711956e-05
7.180918817934783e-05
1.970374065896739e-05
-2.977454144021739e-05
-5.998694378396739e-05
-8.319357167119565e-05
-0.00011209239130434782
-0.00012960682744565216
-0.00011034094769021739
-5.823550016983695e-05
-1.7514436141304347e-06
3.853175951086956e-05
7.399849269701087e-05
0.00012041174847146739
0.00016857644786005433
0.00018652874490489128
0.00015368917713994565
7.881496263586956e-05
-2.057946246603261e-05
-0.00013573688009510868
-0.0002526457413383152
-0.0003380286175271739
-0.0003529158882472826
-0.00028373386548913044
-0.0001563163425611413
-2.276876698369565e-05
7.224704908288043e-05
0.00011515741762907608
0.00011822244395380434
0.00010289731233016304
7.618779721467391e-05
2.583379330842391e-05
-5.998694378396739e-05
-0.0001720793350883152
-0.0002679708729619565
-0.0002881124745244565
-0.0001970374065896739
-2.1893045176630434e-05
0.00015412703804347825
0.00025089429772418476
0.0002473914104959239
0.00018390157948369563
0.00011822244395380434
8.012854534646738e-05
6.830630095108695e-05
6.743057914402173e-05
6.261410920516304e-05
4.904042119565217e-05
3.1525985054347824e-05
2.276876698369565e-05
3.065026324728261e-05
4.772683848505435e-05
5.429475203804348e-05
3.896962041440217e-05
9.195078974184782e-06
-2.276876698369565e-05
-5.5170473845108694e-05
-9.238865064538043e-05
-0.00013048254925271738
-0.00015281345533288044
-0.00014186693274456522
-9.195078974184782e-05
-1.7076575237771737e-05
5.1229725713315214e-05
8.53828761888587e-05
7.57499363111413e-05
3.7656037703804346e-05
4.378609035326087e-07
-9.63293987771739e-06
1.2260105298913043e-05
4.641325577445652e-05
5.692191745923913e-05
2.627165421195652e-05
-3.240170686141304e-05
-8.713431980298913e-05
-0.00010902736497961956
-9.282651154891303e-05
-5.7359778362771735e-05
-2.8460958729619564e-05
-1.7076575237771737e-05
-1.4011548913043478e-05
-5.6921917459239125e-06
1.4887270720108696e-05
5.210544752038043e-05
0.00011296811311141304
0.00018565302309782607
0.00022374692170516302
0.00018127441406249998
6.655485733695651e-05
-5.254330842391304e-05
-0.00010858950407608696
-8.888576341711956e-05
-3.283956776494565e-05
1.926587975543478e-05
5.998694378396739e-05
8.976148522418478e-05
9.326437245244564e-05
5.604619565217391e-05
-4.378609035326087e-06
-5.035400390625e-05
-6.436555281929347e-05
-5.385689113451087e-05
-2.8898819633152172e-05
5.254330842391304e-06
2.8898819633152172e-05
1.620085343070652e-05
-2.977454144021739e-05
-7.57499363111413e-05
-9.195078974184782e-05
-8.494501528532609e-05
-8.231784986413044e-05
-9.895656419836956e-05
-0.00012654180112092392
-0.0001466834026834239
-0.00014580768087635868
-0.0001160331394361413
-5.692191745923913e-05
1.8828018851902173e-05
9.063720703124999e-05
0.0001409912109375
0.00016857644786005433
0.00018390157948369563
0.00019484810207201085
0.0001970374065896739
0.00017426863960597825
0.00011384383491847825
2.364448879076087e-05
-6.130052649456522e-05
-0.00010640019955842391
-0.00011165453040081521
-0.00010771378226902174
-0.00011778458305027173
-0.00013310971467391303
-0.00013092041015625
-0.00010683806046195652
-7.750137992527173e-05
-5.210544752038043e-05
-2.1893045176630434e-05
2.1455184273097826e-05
6.874416185461957e-05
0.00010464875594429347
0.0001256660793138587
0.00013792618461277173
0.00014230479364809781
0.00013267185377038043
0.00010552447775135868
6.56791355298913e-05
2.4520210597826086e-05
-7.005774456521739e-06
-2.627165421195652e-05
-3.984534222146739e-05
-5.56083347486413e-05
-7.662565811820652e-05
-9.676725968070652e-05
-0.0001059623386548913
-0.0001059623386548913
-0.00011384383491847825
-0.0001409912109375
-0.00016901430876358696
-0.00015938136888586955
-9.019934612771738e-05
1.7952297044836957e-05
0.00012041174847146739
0.00017733366593070652
0.00017777152683423912
0.00013442329738451087
7.180918817934783e-05
1.4011548913043478e-05
-2.276876698369565e-05
-2.933668053668478e-05
-1.313582710597826e-06
5.4732612941576086e-05
0.00012041174847146739
0.00017120361328124998
0.00019003163213315218
0.00017383077870244563
0.00012479035750679349
4.641325577445652e-05
-5.254330842391304e-05
-0.00014712126358695652
-0.0001970374065896739
-0.00018521516219429347
-0.00014449409816576087
-0.0001322339928668478
-0.00016770072605298912
-0.00021280039911684783
-0.00021323826002038042
-0.0001514998726222826
-5.823550016983695e-05
1.751443614130435e-05
4.4223951256793476e-05
1.970374065896739e-05
-2.627165421195652e-05
-5.0791864809782605e-05
-2.4082349694293478e-05
5.5170473845108694e-05
0.00016332211701766304
0.0002675330120584239
0.00033540145210597823
0.00033583931300951083
0.00025483504585597827
0.00011515741762907608
-3.021240234375e-05
-0.00013398543648097824
-0.00017864724864130434
-0.00017251719599184782
-0.00012697966202445651
-6.04248046875e-05
-4.378609035326087e-06
1.2260105298913043e-05
-8.319357167119564e-06
-3.327742866847826e-05
-2.670951511548913e-05
1.5325131623641304e-05
6.830630095108695e-05
0.00010508661684782608
0.00012172533118206522
0.00012260105298913043
0.00011034094769021739
8.757218070652174e-05
6.436555281929347e-05
4.641325577445652e-05
3.1525985054347824e-05
2.1017323369565217e-05
2.320662788722826e-05
3.678031589673913e-05
4.115892493206522e-05
1.751443614130435e-05
-3.283956776494565e-05
-9.414009425951087e-05
-0.00015325131623641303
-0.0002071082073709239
-0.0002491428541100543
-0.00026140295940896735
-0.0002268119480298913
-0.00014887270720108695
-6.130052649456522e-05
3.940748131793478e-06
4.378609035326087e-05
6.961988366168479e-05
7.925282353940217e-05
5.7359778362771735e-05
6.130052649456522e-06
-4.291036854619565e-05
-5.648405655570652e-05
-2.8460958729619564e-05
1.7952297044836957e-05
5.954908288043478e-05
8.713431980298913e-05
9.895656419836956e-05
8.669645889945652e-05
4.2034646739130435e-05
-2.0141601562499998e-05
-6.480341372282608e-05
-6.348983101222826e-05
-2.670951511548913e-05
1.1822244395380435e-05
2.7585236922554347e-05
2.4082349694293478e-05
1.7952297044836957e-05
1.357368800951087e-05
0.0
-2.583379330842391e-05
-5.298116932744565e-05
-6.480341372282608e-05
-5.998694378396739e-05
-4.378609035326087e-05
-1.8390157948369565e-05
1.663871433423913e-05
5.954908288043478e-05
0.00010552447775135868
0.00014799698539402173
0.0001707657523777174
0.00015325131623641303
9.063720703124999e-05
8.757218070652174e-06
-4.4661812160326084e-05
-3.065026324728261e-05
5.56083347486413e-05
0.00017602008322010869
0.0002666572902513587
0.00027541450832201087
0.0001922209366508152
4.947828209918478e-05
-0.00010027014690896739
-0.00020929751188858694
-0.00025352146314538043
-0.00023907205332880435
-0.00019265879755434783
-0.00014055335003396738
-9.54536769701087e-05
-6.480341372282608e-05
-5.385689113451087e-05
-6.173838739809782e-05
-7.881496263586956e-05
-9.282651154891303e-05
-9.414009425951087e-05
-6.830630095108695e-05
2.627165421195652e-06
0.00011822244395380434
0.00023907205332880435
0.00031000551970108693
0.00030387546705163044
0.00023381772248641302
0.00013004468834918478
1.8828018851902173e-05
-7.618779721467391e-05
-0.00012873110563858695
-0.00011471955672554347
-4.115892493206522e-05
4.772683848505435e-05
0.00010902736497961956
0.00012829324473505435
0.00010333517323369564
2.057946246603261e-05
-0.00011909816576086957
-0.00026534370754076087
-0.00033934220023777175
-0.00030606477156929347
-0.00019441024116847826
-6.04248046875e-05
5.7359778362771735e-05
0.0001462455417798913
0.00020316745923913042
0.0002224333389945652
0.00019484810207201085
0.00011778458305027173
5.254330842391304e-06
-0.00011165453040081521
-0.0001961616847826087
-0.0002219954780910326
-0.00018477730129076085
-9.720512058423913e-05
7.881496263586956e-06
8.757218070652174e-05
0.00010990308678668478
8.144212805706522e-05
4.072106402853261e-05
1.7076575237771737e-05
5.6921917459239125e-06
-1.313582710597826e-05
-4.641325577445652e-05
-7.969068444293477e-05
-9.939442510190217e-05
-0.00010333517323369564
-9.195078974184782e-05
-6.130052649456522e-05
-2.057946246603261e-05
-3.065026324728261e-06
-3.283956776494565e-05
-9.326437245244564e-05
-0.00013310971467391303
-0.00011559527853260869
-3.940748131793478e-05
7.268490998641304e-05
0.00018915591032608696
0.00027191162109375
0.0002933668053668478
0.00025483504585597827
0.0001821501358695652
9.808084239130435e-05
1.0508661684782609e-05
-7.049560546875e-05
-0.00011866030485733696
-0.00010858950407608696
-4.728897758152174e-05
2.0141601562499998e-05
5.254330842391304e-05
4.904042119565217e-05
4.072106402853261e-05
4.4223951256793476e-05
4.1596785835597826e-05
7.443635360054348e-06
-5.385689113451087e-05
-0.00011384383491847825
-0.00014186693274456522
-0.00012172533118206522
-5.4732612941576086e-05
3.853175951086956e-05
0.00011997388756793478
0.00015719206436820652
0.00014974842900815217
0.00012347677479619565
9.983228600543478e-05
7.356063179347826e-05
2.583379330842391e-05
-4.2034646739130435e-05
-0.00010245945142663043
-0.00012522821841032608
-0.00010771378226902174
-7.049560546875e-05
-3.196384595788043e-05
4.378609035326087e-06
3.590459408967391e-05
5.7359778362771735e-05
6.830630095108695e-05
7.312277088994565e-05
7.049560546875e-05
5.166758661684782e-05
1.4887270720108696e-05
-2.977454144021739e-05
-7.224704908288043e-05
-0.0001112166694972826
-0.00015106201171875
-0.00018959377122961955
-0.00021805472995923913
-0.0002268119480298913
-0.00021980617357336956
-0.0002009781547214674
-0.00014887270720108695
-2.4082349694293478e-05
0.0001668250042459239
0.0003380286175271739
0.0003787496815557065
0.0002644679857336956
8.801004161005434e-05
-3.240170686141304e-05
-5.385689113451087e-05
-1.5325131623641304e-05
2.4082349694293478e-05
4.2034646739130435e-05
4.2034646739130435e-05
2.977454144021739e-05
5.254330842391304e-06
-2.364448879076087e-05
-4.728897758152174e-05
-6.699271824048912e-05
-9.019934612771738e-05
-0.00010990308678668478
-0.00010815164317255435
-8.275571076766304e-05
-5.385689113451087e-05
-3.7656037703804346e-05
-3.459101137907609e-05
-4.4661812160326084e-05
-6.918202275815218e-05
-9.063720703124999e-05
-8.056640624999999e-05
-3.721817680027174e-05
9.63293987771739e-06
4.509967306385869e-05
9.457795516304348e-05
0.0001817122749660326
0.00027147376019021736
0.0002933668053668478
0.0002224333389945652
0.00011209239130434782
2.933668053668478e-05
-1.663871433423913e-05
-5.998694378396739e-05
-0.00010858950407608696
-0.00013092041015625
-0.00010858950407608696
-7.268490998641304e-05
-6.743057914402173e-05
-9.632939877717391e-05
-0.0001164710003396739
-8.494501528532609e-05
-8.757218070652174e-07
9.501581606657609e-05
0.00016113281249999998
0.00017383077870244563
0.00013092041015625
5.035400390625e-05
-3.1088124150815216e-05
-8.056640624999999e-05
-8.669645889945652e-05
-5.7359778362771735e-05
-5.6921917459239125e-06
5.298116932744565e-05
0.00010202159052309782
0.00012785538383152173
0.0001313582710597826
0.00012172533118206522
0.00010202159052309782
6.56791355298913e-05
1.357368800951087e-05
-3.065026324728261e-05
-4.1596785835597826e-05
-2.1455184273097826e-05
-7.881496263586956e-06
-2.933668053668478e-05
-7.049560546875e-05
-0.0001007080078125
-0.00011428169582201086
-0.00012435249660326086
-0.00011953602666440217
-5.4732612941576086e-05
9.54536769701087e-05
0.00029073963994565217
0.0004457423997961956
0.0004982857082201086
0.000445304538892663
0.0003082540760869565
0.00010508661684782608
-0.00013092041015625
-0.00033233642578124996
-0.00042560079823369566
-0.0003945126740828804
-0.00029424252717391304
-0.00019966457201086956
-0.00014931056810461955
-0.00013310971467391303
-0.0001256660793138587
-0.00011165453040081521
-9.282651154891303e-05
-7.180918817934783e-05
-4.685111667798913e-05
-2.1017323369565217e-05
-3.065026324728261e-06
4.378609035326087e-06
7.881496263586956e-06
2.1893045176630435e-06
-2.583379330842391e-05
-7.443635360054348e-05
-0.00011559527853260869
-0.0001221631920855978
-9.501581606657609e-05
-5.823550016983695e-05
-3.240170686141304e-05
-1.7952297044836957e-05
4.378609035326087e-07
3.459101137907609e-05
7.487421450407608e-05
9.720512058423913e-05
8.757218070652174e-05
5.823550016983695e-05
3.4153150475543474e-05
3.065026324728261e-05
3.896962041440217e-05
4.509967306385869e-05
4.991614300271739e-05
6.961988366168479e-05
0.00011165453040081521
0.00016244639521059782
0.00019835098930027172
0.00020798392917798913
0.00019353451936141304
0.00015237559442934782
7.925282353940217e-05
-1.751443614130435e-05
-0.00011384383491847825
-0.00018127441406249998
-0.00021017323369565215
-0.00020360532014266304
-0.00016901430876358696
-0.00011296811311141304
-4.072106402853261e-05
3.984534222146739e-05
0.00011471955672554347
0.00016507356063179347
0.00017952297044836955
0.00016113281249999998
0.00012347677479619565
8.100426715353261e-05
4.772683848505435e-05
2.8023097826086955e-05
1.2697966202445651e-05
-1.1384383491847825e-05
-4.0283203124999995e-05
-5.0791864809782605e-05
-2.977454144021739e-05
-2.627165421195652e-06
-1.1384383491847825e-05
-6.305197010869565e-05
-0.00011253025220788043
-0.00011253025220788043
-6.699271824048912e-05
-2.627165421195652e-05
-2.364448879076087e-05
-4.334822944972826e-05
-4.8602560292119564e-05
-3.065026324728261e-05
-8.757218070652174e-06
0.0
0.0
2.1893045176630435e-06
1.0946522588315217e-05
2.4082349694293478e-05
3.634245499320652e-05
4.4223951256793476e-05
5.341903023097826e-05
7.443635360054348e-05
0.00010858950407608696
0.0001414290718410326
0.00015062415081521738
0.00012479035750679349
6.874416185461957e-05
-9.195078974184782e-06
-0.00010508661684782608
-0.0002071082073709239
-0.00028592317000679347
-0.00030956765879755434
-0.0002723494819972826
-0.00020272959833559783
-0.0001361747409986413
-9.10750679347826e-05
-6.261410920516304e-05
-3.50288722826087e-05
4.378609035326087e-07
3.984534222146739e-05
7.662565811820652e-05
0.00011428169582201086
0.0001563163425611413
0.00017952297044836955
0.00013267185377038043
-1.5762992527173912e-05
-0.00023075269616168478
-0.0004203464673913043
-0.0004925935164741848
-0.0004133406929347826
-0.0002176168690557065
1.357368800951087e-05
0.0002071082073709239
0.0003231413468070652
0.0003568566363790761
0.00032401706861413045
0.00025308360224184784
0.00018390157948369563
0.00014712126358695652
0.0001466834026834239
0.00015981922978940217
0.00015456489894701087
0.00011253025220788043
3.984534222146739e-05
-3.283956776494565e-05
-7.925282353940217e-05
-9.195078974184782e-05
-8.100426715353261e-05
-5.604619565217391e-05
-2.4520210597826086e-05
3.065026324728261e-06
2.320662788722826e-05
4.334822944972826e-05
6.918202275815218e-05
9.720512058423913e-05
0.00012041174847146739
0.00013880190641983695
0.0001567542034646739
0.00018127441406249998
0.0002163032863451087
0.00025395932404891303
0.00027016017747961957
0.0002377584706182065
0.0001475591244904891
1.0508661684782609e-05
-0.00014536981997282609
-0.000281982421875
-0.00035992166270380435
-0.00036254882812499997
-0.00030518904976222823
-0.00022593622622282608
-0.00015368917713994565
-9.501581606657609e-05
-4.378609035326087e-05
-3.065026324728261e-06
1.4449409816576086e-05
7.881496263586956e-06
-1.0946522588315217e-05
-3.196384595788043e-05
-5.254330842391304e-05
-6.743057914402173e-05
-6.130052649456522e-05
-2.8898819633152172e-05
7.005774456521739e-06
1.2260105298913043e-05
-1.8390157948369565e-05
-5.1229725713315214e-05
-4.8164699388586956e-05
-6.130052649456522e-06
4.641325577445652e-05
8.757218070652174e-05
0.00010990308678668478
0.00010683806046195652
6.830630095108695e-05
-2.1893045176630435e-06
-7.706351902173912e-05
-0.00012522821841032608
-0.00013792618461277173
-0.0001313582710597826
-0.00012303891389266303
-0.00011515741762907608
-0.0001011458687160326
-7.837710173233695e-05
-5.035400390625e-05
-1.7952297044836957e-05
1.926587975543478e-05
6.217624830163043e-05
0.00010421089504076086
0.00013442329738451087
0.00014274265455163044
0.00012785538383152173
0.00010027014690896739
7.268490998641304e-05
5.385689113451087e-05
4.772683848505435e-05
5.429475203804348e-05
6.305197010869565e-05
5.385689113451087e-05
1.357368800951087e-05
-4.8602560292119564e-05
-9.939442510190217e-05
-9.895656419836956e-05
-2.8460958729619564e-05
8.406929347826087e-05
0.0001716414741847826
0.00017514436141304347
9.019934612771738e-05
-2.4958071501358695e-05
-0.00010333517323369564
-0.00011778458305027173
-9.195078974184782e-05
-6.524127462635869e-05
-6.392769191576087e-05
-8.757218070652174e-05
-0.00011471955672554347
-0.0001112166694972826
-4.991614300271739e-05
6.173838739809782e-05
0.00017295505689538042
0.0002171790081521739
0.00016375997792119566
4.597539487092391e-05
-6.699271824048912e-05
-0.0001261039402173913
-0.00012785538383152173
-0.0001059623386548913
-9.457795516304348e-05
-9.370223335597826e-05
-7.00577445652174e-05
0.0
9.939442510190217e-05
0.00018565302309782607
0.00023644488790760867
0.00025483504585597827
0.0002469535495923913
0.00020798392917798913
0.00014274265455163044
7.137132727581522e-05
1.2260105298913043e-05
-3.459101137907609e-05
-7.881496263586956e-05
-0.00011034094769021739
-0.00010858950407608696
-7.093346637228261e-05
-2.1893045176630434e-05
1.5325131623641304e-05
4.291036854619565e-05
6.786844004755434e-05
8.012854534646738e-05
6.480341372282608e-05
3.459101137907609e-05
1.970374065896739e-05
2.320662788722826e-05
1.357368800951087e-05
-3.590459408967391e-05
-0.00011165453040081521
-0.00016857644786005433
-0.00017514436141304347
-0.00014055335003396738
-9.632939877717391e-05
-6.261410920516304e-05
-3.678031589673913e-05
-8.319357167119564e-06
2.0141601562499998e-05
3.940748131793478e-05
4.1596785835597826e-05
3.065026324728261e-05
1.4011548913043478e-05
-6.130052649456522e-06
-3.50288722826087e-05
-7.268490998641304e-05
-0.0001011458687160326
-9.063720703124999e-05
-3.1088124150815216e-05
3.896962041440217e-05
6.130052649456522e-05
1.313582710597826e-05
-6.524127462635869e-05
-0.00010727592136548913
-8.144212805706522e-05
-1.313582710597826e-05
4.728897758152174e-05
7.618779721467391e-05
8.100426715353261e-05
7.268490998641304e-05
4.4661812160326084e-05
-1.313582710597826e-06
-3.678031589673913e-05
-2.1893045176630434e-05
4.378609035326087e-05
0.00011734672214673912
0.00014974842900815217
0.00012479035750679349
5.692191745923913e-05
-3.1525985054347824e-05
-0.0001261039402173913
-0.0002123625382133152
-0.00026928445567255433
-0.0002749766474184783
-0.00022024403447690216
-0.00012041174847146739
-3.5028872282608694e-06
0.0001007080078125
0.00017733366593070652
0.0002228711998980978
0.0002430128014605978
0.00024257494055706521
0.00022068189538043478
0.00017426863960597825
0.00010421089504076086
2.057946246603261e-05
-5.341903023097826e-05
-8.801004161005434e-05
-6.56791355298913e-05
-2.1893045176630435e-06
6.086266559103261e-05
9.238865064538043e-05
8.844790251358695e-05
6.436555281929347e-05
3.459101137907609e-05
8.757218070652174e-07
-3.3715289572010865e-05
-5.998694378396739e-05
-6.786844004755434e-05
-6.261410920516304e-05
-5.4732612941576086e-05
-4.509967306385869e-05
-2.4958071501358695e-05
1.313582710597826e-05
6.086266559103261e-05
0.00010158372961956521
0.0001221631920855978
0.0001164710003396739
7.881496263586956e-05
1.0508661684782609e-05
-7.312277088994565e-05
-0.00014536981997282609
-0.0001817122749660326
-0.00017032789147418477
-0.00012041174847146739
-5.56083347486413e-05
-5.254330842391304e-06
1.0946522588315217e-05
-5.6921917459239125e-06
-3.8093898607336954e-05
-6.217624830163043e-05
-6.348983101222826e-05
-4.8164699388586956e-05
-3.021240234375e-05
-1.2260105298913043e-05
9.195078974184782e-06
3.4153150475543474e-05
5.210544752038043e-05
5.429475203804348e-05
4.728897758152174e-05
4.334822944972826e-05
4.772683848505435e-05
4.4661812160326084e-05
4.816469938858695e-06
-8.625859799592391e-05
-0.00020316745923913042
-0.0002832960045855978
-0.0002797931173573369
-0.00019835098930027172
-8.231784986413044e-05
2.627165421195652e-05
0.00010552447775135868
0.0001466834026834239
0.0001501862899116848
0.00013442329738451087
0.00013048254925271738
0.0001563163425611413
0.00019309665845788042
0.00019791312839673912
0.00014974842900815217
7.049560546875e-05
8.757218070652174e-07
-3.634245499320652e-05
-4.1596785835597826e-05
-2.276876698369565e-05
9.195078974184782e-06
3.590459408967391e-05
3.5466733186141305e-05
8.757218070652174e-06
-1.2697966202445651e-05
1.313582710597826e-06
4.904042119565217e-05
9.019934612771738e-05
8.844790251358695e-05
4.378609035326087e-05
-1.4011548913043478e-05
-5.5170473845108694e-05
-6.786844004755434e-05
-5.692191745923913e-05
-3.459101137907609e-05
-1.620085343070652e-05
-1.1384383491847825e-05
-1.8390157948369565e-05
-1.926587975543478e-05
6.56791355298913e-06
5.911122197690217e-05
0.00010640019955842391
0.00010771378226902174
5.035400390625e-05
-4.2034646739130435e-05
-0.00013573688009510868
-0.00020885965098505434
-0.0002522078804347826
-0.00025308360224184784
-0.00019966457201086956
-0.00010245945142663043
0.0
6.261410920516304e-05
6.786844004755434e-05
3.853175951086956e-05
1.4449409816576086e-05
1.7952297044836957e-05
4.509967306385869e-05
7.268490998641304e-05
8.363143257472826e-05
7.399849269701087e-05
4.904042119565217e-05
1.926587975543478e-05
1.7514436141304347e-06
1.2697966202445651e-05
5.604619565217391e-05
0.00011209239130434782
0.00015062415081521738
0.0001466834026834239
9.676725968070652e-05
1.8390157948369565e-05
-5.648405655570652e-05
-0.00010027014690896739
-0.00010027014690896739
-6.524127462635869e-05
-1.8828018851902173e-05
1.4011548913043478e-05
2.320662788722826e-05
7.881496263586956e-06
-2.320662788722826e-05
-5.604619565217391e-05
-7.312277088994565e-05
-6.392769191576087e-05
-3.065026324728261e-05
1.2260105298913043e-05
5.166758661684782e-05
7.093346637228261e-05
5.0791864809782605e-05
-1.751443614130435e-05
-0.00011428169582201086
-0.00019528596297554347
-0.0002228711998980978
-0.0001974752674932065
-0.0001466834026834239
-9.501581606657609e-05
-4.685111667798913e-05
0.0
4.1596785835597826e-05
6.217624830163043e-05
5.604619565217391e-05
3.940748131793478e-05
3.721817680027174e-05
5.5170473845108694e-05
6.874416185461957e-05
4.947828209918478e-05
-1.7514436141304347e-06
-5.5170473845108694e-05
-7.969068444293477e-05
-6.480341372282608e-05
-1.8828018851902173e-05
4.247250764266304e-05
0.00010464875594429347
0.0001567542034646739
0.00019309665845788042
0.00020973537279211956
0.00019528596297554347
0.00014274265455163044
7.137132727581522e-05
2.5395932404891303e-05
2.977454144021739e-05
6.04248046875e-05
6.830630095108695e-05
3.283956776494565e-05
-2.276876698369565e-05
-7.180918817934783e-05
-0.00010640019955842391
-0.00012347677479619565
-0.0001059623386548913
-4.685111667798913e-05
2.1017323369565217e-05
4.772683848505435e-05
1.5325131623641304e-05
-4.2034646739130435e-05
-7.881496263586956e-05
-7.881496263586956e-05
-5.867336107336956e-05
-4.509967306385869e-05
-5.5170473845108694e-05
-8.231784986413044e-05
-0.00010377303413722825
-0.00010202159052309782
-8.713431980298913e-05
-8.231784986413044e-05
-8.801004161005434e-05
-7.793924082880434e-05
-3.678031589673913e-05
1.2697966202445651e-05
3.590459408967391e-05
2.4958071501358695e-05
7.005774456521739e-06
6.56791355298913e-06
1.751443614130435e-05
1.4449409816576086e-05
-1.0508661684782609e-05
-4.291036854619565e-05
-6.348983101222826e-05
-6.56791355298913e-05
-4.8164699388586956e-05
-6.56791355298913e-06
5.692191745923913e-05
0.00012873110563858695
0.00018433944038722826
0.000201416015625
0.00016989003057065217
0.00010771378226902174
5.429475203804348e-05
3.984534222146739e-05
5.604619565217391e-05
6.56791355298913e-05
4.247250764266304e-05
-3.940748131793478e-06
-4.509967306385869e-05
-6.173838739809782e-05
-5.648405655570652e-05
-4.2034646739130435e-05
-2.627165421195652e-05
-1.357368800951087e-05
-4.378609035326087e-06
1.313582710597826e-06
5.254330842391304e-06
6.56791355298913e-06
4.378609035326087e-07
-1.5325131623641304e-05
-3.459101137907609e-05
-4.509967306385869e-05
-4.247250764266304e-05
-3.327742866847826e-05
-2.714737601902174e-05
-2.4082349694293478e-05
-1.926587975543478e-05
-1.313582710597826e-05
-9.63293987771739e-06
-8.319357167119564e-06
-3.940748131793478e-06
5.6921917459239125e-06
1.751443614130435e-05
2.4958071501358695e-05
2.8023097826086955e-05
3.50288722826087e-05
5.210544752038043e-05
7.137132727581522e-05
7.487421450407608e-05
5.254330842391304e-05
1.4011548913043478e-05
-1.663871433423913e-05
-2.4958071501358695e-05
-1.7076575237771737e-05
-1.0946522588315217e-05
-1.751443614130435e-05
-3.240170686141304e-05
-4.685111667798913e-05
-5.998694378396739e-05
-7.268490998641304e-05
-7.399849269701087e-05
-4.728897758152174e-05
8.757218070652174e-06
7.312277088994565e-05
0.00011428169582201086
0.00011559527853260869
7.618779721467391e-05
5.6921917459239125e-06
-7.662565811820652e-05
-0.00013923976732336957
-0.00014230479364809781
-7.487421450407608e-05
2.1893045176630434e-05
8.625859799592391e-05
8.932362432065217e-05
6.305197010869565e-05
5.254330842391304e-05
6.480341372282608e-05
7.180918817934783e-05
4.8164699388586956e-05
4.378609035326087e-07
-4.8164699388586956e-05
-7.837710173233695e-05
-8.012854534646738e-05
-4.991614300271739e-05
4.378609035326087e-07
3.8093898607336954e-05
2.933668053668478e-05
-2.057946246603261e-05
-6.699271824048912e-05
-6.786844004755434e-05
-2.8023097826086955e-05
1.4887270720108696e-05
3.240170686141304e-05
2.627165421195652e-05
1.313582710597826e-05
4.378609035326087e-06
1.7514436141304347e-06
2.627165421195652e-06
1.313582710597826e-06
-9.63293987771739e-06
-3.240170686141304e-05
-5.5170473845108694e-05
-5.648405655570652e-05
-2.4082349694293478e-05
2.4958071501358695e-05
5.298116932744565e-05
3.1525985054347824e-05
-2.714737601902174e-05
-7.925282353940217e-05
-8.450715438179348e-05
-4.4661812160326084e-05
3.5028872282608694e-06
3.196384595788043e-05
4.641325577445652e-05
6.655485733695651e-05
8.450715438179348e-05
6.961988366168479e-05
1.4011548913043478e-05
-4.8164699388586956e-05
-7.881496263586956e-05
-7.57499363111413e-05
-6.392769191576087e-05
-6.130052649456522e-05
-5.7359778362771735e-05
-3.196384595788043e-05
2.364448879076087e-05
9.851870329483695e-05
0.00016770072605298912
0.00020842179008152172
0.0002066703464673913
0.00015762992527173911
7.356063179347826e-05
-1.5762992527173912e-05
-7.224704908288043e-05
-7.224704908288043e-05
-3.240170686141304e-05
-3.940748131793478e-06
-3.4153150475543474e-05
-0.00011909816576086957
-0.00020316745923913042
-0.00022068189538043478
-0.0001475591244904891
-1.2697966202445651e-05
0.00012303891389266303
0.00020535676375679348
0.0002066703464673913
0.00013529901919157608
2.7585236922554347e-05
-6.524127462635869e-05
-0.00010333517323369564
-8.144212805706522e-05
-2.5395932404891303e-05
3.678031589673913e-05
8.450715438179348e-05
9.720512058423913e-05
6.261410920516304e-05
-6.130052649456522e-06
-8.187998896059783e-05
-0.00014230479364809781
-0.00017996083135190217
-0.00019309665845788042
-0.00017514436141304347
-0.00011822244395380434
-2.933668053668478e-05
6.699271824048912e-05
0.00014230479364809781
0.00017996083135190217
0.0001764579441236413
0.00013267185377038043
5.210544752038043e-05
-4.8164699388586956e-05
-0.00014186693274456522
-0.0002022917374320652
-0.0002167411472486413
-0.0001764579441236413
-8.100426715353261e-05
4.8164699388586956e-05
0.00016332211701766304
0.00021936831266983694
0.00020842179008152172
0.00015456489894701087
8.494501528532609e-05
1.1822244395380435e-05
-5.385689113451087e-05
-9.54536769701087e-05
-0.00010552447775135868
-9.414009425951087e-05
-8.012854534646738e-05
-6.786844004755434e-05
-4.685111667798913e-05
-1.1822244395380435e-05
2.583379330842391e-05
5.210544752038043e-05
6.56791355298913e-05
7.399849269701087e-05
7.399849269701087e-05
5.56083347486413e-05
1.8828018851902173e-05
-2.1017323369565217e-05
-4.1596785835597826e-05
-3.021240234375e-05
1.0070800781249999e-05
6.392769191576087e-05
0.00010508661684782608
0.00010552447775135868
5.166758661684782e-05
-3.940748131793478e-05
-0.00012172533118206522
-0.00015281345533288044
-0.00012303891389266303
-5.341903023097826e-05
2.7585236922554347e-05
9.501581606657609e-05
0.00012785538383152173
0.00011734672214673912
6.961988366168479e-05
-2.627165421195652e-06
-8.976148522418478e-05
-0.00017383077870244563
-0.00022462264351222826
-0.00021148681640625
-0.0001322339928668478
-2.4520210597826086e-05
6.130052649456522e-05
0.00010289731233016304
0.00011340597401494565
0.00011909816576086957
0.00013267185377038043
0.00015368917713994565
0.00017908510954483696
0.00019791312839673912
0.00018915591032608696
0.00013748832370923914
4.8602560292119564e-05
-5.254330842391304e-05
-0.00013836404551630435
-0.0001869666058084239
-0.00018915591032608696
-0.00014974842900815217
-8.53828761888587e-05
-2.1893045176630434e-05
1.620085343070652e-05
2.2330906080163042e-05
8.757218070652174e-06
0.0
1.0946522588315217e-05
4.0283203124999995e-05
7.356063179347826e-05
9.895656419836956e-05
0.00011428169582201086
0.00011997388756793478
0.00011034094769021739
8.056640624999999e-05
3.459101137907609e-05
-1.0508661684782609e-05
-4.334822944972826e-05
-6.392769191576087e-05
-7.750137992527173e-05
-8.494501528532609e-05
-8.625859799592391e-05
-8.144212805706522e-05
-7.180918817934783e-05
-6.130052649456522e-05
-5.823550016983695e-05
-6.480341372282608e-05
-6.918202275815218e-05
-6.173838739809782e-05
-5.5170473845108694e-05
-7.137132727581522e-05
-0.00010902736497961956
-0.0001366126019021739
-0.0001221631920855978
-6.217624830163043e-05
1.7952297044836957e-05
8.801004161005434e-05
0.00012960682744565216
0.00013923976732336957
0.00012128747027853261
9.151292883831521e-05
7.487421450407608e-05
8.187998896059783e-05
9.54536769701087e-05
8.932362432065217e-05
6.217624830163043e-05
3.459101137907609e-05
2.1455184273097826e-05
2.0141601562499998e-05
2.4082349694293478e-05
3.1088124150815216e-05
2.977454144021739e-05
1.313582710597826e-06
-5.4732612941576086e-05
-0.00010640019955842391
-0.00011340597401494565
-6.961988366168479e-05
-9.195078974184782e-06
2.320662788722826e-05
1.357368800951087e-05
-1.4887270720108696e-05
-3.1525985054347824e-05
-2.4958071501358695e-05
-5.254330842391304e-06
1.2697966202445651e-05
2.0141601562499998e-05
1.2260105298913043e-05
-1.2697966202445651e-05
-4.8164699388586956e-05
-7.618779721467391e-05
-8.056640624999999e-05
-5.998694378396739e-05
-2.8898819633152172e-05
-1.1384383491847825e-05
-1.5325131623641304e-05
-2.670951511548913e-05
-2.4082349694293478e-05
-2.627165421195652e-06
2.4520210597826086e-05
5.1229725713315214e-05
8.757218070652174e-05
0.00014449409816576087
0.00021411398182744564
0.0002670951511548913
0.00027016017747961957
0.00020535676375679348
8.012854534646738e-05
-7.399849269701087e-05
-0.00021586542544157607
-0.00030956765879755434
-0.0003336500084918478
-0.00028592317000679347
-0.00018915591032608696
-8.231784986413044e-05
4.378609035326087e-07
5.0791864809782605e-05
7.750137992527173e-05
8.976148522418478e-05
8.801004161005434e-05
6.61169964334239e-05
2.4958071501358695e-05
-2.320662788722826e-05
-6.699271824048912e-05
-9.54536769701087e-05
-9.676725968070652e-05
-6.217624830163043e-05
0.0
5.7359778362771735e-05
8.056640624999999e-05
6.305197010869565e-05
2.1455184273097826e-05
-2.1893045176630434e-05
-5.429475203804348e-05
-7.356063179347826e-05
-8.713431980298913e-05
-0.00010640019955842391
-0.00013398543648097824
-0.00014931056810461955
-0.00011997388756793478
-2.977454144021739e-05
9.676725968070652e-05
0.00020842179008152172
0.00026403012483016303
0.00026008937669836957
0.00021805472995923913
0.00015850564707880433
8.801004161005434e-05
1.926587975543478e-05
-1.7952297044836957e-05
-1.313582710597826e-06
5.166758661684782e-05
8.494501528532609e-05
6.04248046875e-05
0.0
-4.1596785835597826e-05
-3.896962041440217e-05
-1.4887270720108696e-05
-4.378609035326087e-07
8.757218070652174e-07
3.065026324728261e-06
9.195078974184782e-06
5.6921917459239125e-06
-1.357368800951087e-05
-4.378609035326087e-05
-7.487421450407608e-05
-0.00010552447775135868
-0.00012873110563858695
-0.00013004468834918478
-0.00010377303413722825
-6.655485733695651e-05
-4.0283203124999995e-05
-3.065026324728261e-05
-2.1893045176630434e-05
1.313582710597826e-06
3.940748131793478e-05
7.268490998641304e-05
7.969068444293477e-05
5.298116932744565e-05
7.005774456521739e-06
-3.3715289572010865e-05
-5.166758661684782e-05
-4.291036854619565e-05
-1.4011548913043478e-05
2.583379330842391e-05
6.436555281929347e-05
8.494501528532609e-05
7.793924082880434e-05
4.8602560292119564e-05
1.4449409816576086e-05
-9.195078974184782e-06
-1.8828018851902173e-05
-1.7952297044836957e-05
-1.2260105298913043e-05
-7.443635360054348e-06
-8.319357167119564e-06
-1.357368800951087e-05
-1.2697966202445651e-05
-1.313582710597826e-06
9.63293987771739e-06
4.378609035326087e-06
-2.0141601562499998e-05
-4.728897758152174e-05
-5.341903023097826e-05
-3.065026324728261e-05
3.940748131793478e-06
2.4520210597826086e-05
1.663871433423913e-05
-1.0070800781249999e-05
-3.240170686141304e-05
-2.933668053668478e-05
1.7514436141304347e-06
4.4661812160326084e-05
7.443635360054348e-05
7.750137992527173e-05
6.173838739809782e-05
5.166758661684782e-05
6.261410920516304e-05
8.319357167119565e-05
8.406929347826087e-05
4.4661812160326084e-05
-2.364448879076087e-05
-8.976148522418478e-05
-0.00012347677479619565
-0.00011034094769021739
-4.55375339673913e-05
6.130052649456522e-05
0.00017602008322010869
0.0002491428541100543
0.00025177001953125
0.00019966457201086956
0.00013267185377038043
7.180918817934783e-05
6.130052649456522e-06
-7.706351902173912e-05
-0.00016594928243885868
-0.0002329420006793478
-0.0002622786812160326
-0.0002574622112771739
-0.0002263740871263587
-0.00017602008322010869
-0.00011471955672554347
-4.597539487092391e-05
2.8898819633152172e-05
0.00010202159052309782
0.00015368917713994565
0.00017032789147418477
0.00015500275985054347
0.00011822244395380434
6.655485733695651e-05
5.6921917459239125e-06
-4.8602560292119564e-05
-7.969068444293477e-05
-8.144212805706522e-05
-6.830630095108695e-05
-6.56791355298913e-05
-8.319357167119565e-05
-9.632939877717391e-05
-6.961988366168479e-05
0.0
6.655485733695651e-05
8.012854534646738e-05
3.634245499320652e-05
-2.4520210597826086e-05
-6.261410920516304e-05
-7.57499363111413e-05
-8.976148522418478e-05
-0.00011690886124320651
-0.00013442329738451087
-0.00010771378226902174
-2.627165421195652e-05
8.450715438179348e-05
0.00018258799677309782
0.0002276876698369565
0.00019922671110733693
0.00011559527853260869
2.7585236922554347e-05
-1.8828018851902173e-05
-2.4082349694293478e-05
-2.5395932404891303e-05
-4.597539487092391e-05
-6.61169964334239e-05
-5.823550016983695e-05
-2.4958071501358695e-05
8.757218070652174e-07
0.0
-1.5762992527173912e-05
-1.7952297044836957e-05
4.378609035326087e-07
1.8828018851902173e-05
1.4011548913043478e-05
-6.56791355298913e-06
-1.8828018851902173e-05
-6.56791355298913e-06
1.8390157948369565e-05
3.853175951086956e-05
4.378609035326087e-05
3.1525985054347824e-05
2.627165421195652e-06
-3.065026324728261e-05
-4.378609035326087e-05
-1.663871433423913e-05
4.1596785835597826e-05
9.895656419836956e-05
0.00012873110563858695
0.00012303891389266303
8.932362432065217e-05
4.072106402853261e-05
-8.319357167119564e-06
-4.991614300271739e-05
-8.494501528532609e-05
-0.00012260105298913043
-0.00016594928243885868
-0.00020054029381793477
-0.00020316745923913042
-0.00016244639521059782
-8.494501528532609e-05
1.2697966202445651e-05
0.00011340597401494565
0.00019309665845788042
0.00022111975628396737
0.00018784232761548912
0.000120849609375
6.961988366168479e-05
5.692191745923913e-05
6.655485733695651e-05
6.743057914402173e-05
4.597539487092391e-05
1.1384383491847825e-05
-1.5325131623641304e-05
-2.0141601562499998e-05
-3.5028872282608694e-06
1.8828018851902173e-05
3.459101137907609e-05
3.240170686141304e-05
8.319357167119564e-06
-3.196384595788043e-05
-7.443635360054348e-05
-0.00010508661684782608
-0.00011953602666440217
-0.00011428169582201086
-8.801004161005434e-05
-4.685111667798913e-05
-7.005774456521739e-06
2.1017323369565217e-05
3.940748131793478e-05
5.867336107336956e-05
8.494501528532609e-05
0.00010552447775135868
9.895656419836956e-05
5.429475203804348e-05
-1.1822244395380435e-05
-6.56791355298913e-05
-9.063720703124999e-05
-0.00010158372961956521
-0.00012873110563858695
-0.00017908510954483696
-0.00022506050441576086
-0.00022549836531929348
-0.00016200853430706522
-5.4732612941576086e-05
5.298116932744565e-05
0.00012741752292798914
0.00015587848165760868
0.00014712126358695652
0.00011866030485733696
8.888576341711956e-05
6.961988366168479e-05
6.699271824048912e-05
7.531207540760869e-05
8.319357167119565e-05
8.406929347826087e-05
7.881496263586956e-05
6.655485733695651e-05
3.896962041440217e-05
-7.005774456521739e-06
-6.173838739809782e-05
-0.00010640019955842391
-0.00012522821841032608
-0.0001112166694972826
-7.180918817934783e-05
-2.4958071501358695e-05
7.005774456521739e-06
1.620085343070652e-05
1.1384383491847825e-05
8.319357167119564e-06
1.4449409816576086e-05
2.2330906080163042e-05
1.4011548913043478e-05
-1.620085343070652e-05
-5.341903023097826e-05
-7.049560546875e-05
-5.166758661684782e-05
-3.5028872282608694e-06
5.166758661684782e-05
8.801004161005434e-05
9.10750679347826e-05
6.655485733695651e-05
3.1525985054347824e-05
-2.1893045176630435e-06
-4.0283203124999995e-05
-8.713431980298913e-05
-0.00013705046280570652
-0.00017733366593070652
-0.0002009781547214674
-0.00020404318104619564
-0.00017996083135190217
-0.00011953602666440217
-2.4520210597826086e-05
8.757218070652174e-05
0.00018740446671195653
0.0002465156886888587
0.0002522078804347826
0.0002163032863451087
0.00016770072605298912
0.0001322339928668478
0.00011077880859375
8.363143257472826e-05
3.7656037703804346e-05
-1.4449409816576086e-05
-5.0791864809782605e-05
-6.392769191576087e-05
-6.217624830163043e-05
-4.991614300271739e-05
-2.1893045176630434e-05
1.751443614130435e-05
4.1596785835597826e-05
1.8828018851902173e-05
-4.685111667798913e-05
-0.00011253025220788043
-0.0001366126019021739
-0.00011559527853260869
-8.100426715353261e-05
-6.305197010869565e-05
-6.786844004755434e-05
-8.056640624999999e-05
-7.881496263586956e-05
-5.1229725713315214e-05
-8.319357167119564e-06
2.7585236922554347e-05
4.685111667798913e-05
5.7359778362771735e-05
7.268490998641304e-05
9.895656419836956e-05
0.00013398543648097824
0.0001720793350883152
0.00020404318104619564
0.00021893045176630434
0.0002066703464673913
0.0001567542034646739
6.173838739809782e-05
-6.655485733695651e-05
-0.00019003163213315218
-0.00026008937669836957
-0.00025395932404891303
-0.00019353451936141304
-0.0001221631920855978
-6.786844004755434e-05
-2.8898819633152172e-05
3.5028872282608694e-06
2.1893045176630434e-05
1.357368800951087e-05
-1.4449409816576086e-05
-3.590459408967391e-05
-2.8460958729619564e-05
3.940748131793478e-06
4.1596785835597826e-05
6.392769191576087e-05
6.305197010869565e-05
4.334822944972826e-05
2.4958071501358695e-05
2.714737601902174e-05
4.8602560292119564e-05
6.261410920516304e-05
4.291036854619565e-05
-9.63293987771739e-06
-6.743057914402173e-05
-0.00010027014690896739
-9.720512058423913e-05
-6.874416185461957e-05
-4.291036854619565e-05
-4.728897758152174e-05
-8.801004161005434e-05
-0.00014449409816576087
-0.00018521516219429347
-0.0001917830757472826
-0.00016463569972826087
-0.00011384383491847825
-4.8164699388586956e-05
2.670951511548913e-05
0.00010683806046195652
0.00017952297044836955
0.00022856339164402172
0.00024038563603940216
0.0002123625382133152
0.0001554406207540761
9.851870329483695e-05
7.487421450407608e-05
9.370223335597826e-05
0.00013048254925271738
0.00014799698539402173
0.00013529901919157608
9.808084239130435e-05
3.721817680027174e-05
-5.341903023097826e-05
-0.00016025709069293476
-0.0002443263841711956
-0.00026884659476902173
-0.00022987697435461956
-0.00015938136888586955
-9.676725968070652e-05
-5.692191745923913e-05
-3.196384595788043e-05
-1.313582710597826e-05
-8.757218070652174e-07
-1.313582710597826e-06
-1.620085343070652e-05
-3.634245499320652e-05
-4.597539487092391e-05
-2.977454144021739e-05
9.63293987771739e-06
5.166758661684782e-05
7.137132727581522e-05
6.61169964334239e-05
5.210544752038043e-05
4.728897758152174e-05
5.166758661684782e-05
5.4732612941576086e-05
5.385689113451087e-05
5.604619565217391e-05
6.524127462635869e-05
7.312277088994565e-05
6.699271824048912e-05
4.247250764266304e-05
1.0070800781249999e-05
-1.2697966202445651e-05
-1.620085343070652e-05
-6.130052649456522e-06
2.627165421195652e-06
3.5028872282608694e-06
1.7514436141304347e-06
1.313582710597826e-06
-4.816469938858695e-06
-2.8898819633152172e-05
-6.699271824048912e-05
-9.370223335597826e-05
-8.713431980298913e-05
-4.728897758152174e-05
0.0
3.021240234375e-05
3.721817680027174e-05
3.590459408967391e-05
4.2034646739130435e-05
5.56083347486413e-05
6.305197010869565e-05
5.56083347486413e-05
3.853175951086956e-05
1.926587975543478e-05
-1.7514436141304347e-06
-2.977454144021739e-05
-6.261410920516304e-05
-8.757218070652174e-05
-9.58915378736413e-05
-8.669645889945652e-05
-6.261410920516304e-05
-2.4520210597826086e-05
1.620085343070652e-05
3.5466733186141305e-05
1.1822244395380435e-05
-4.904042119565217e-05
-0.0001164710003396739
-0.00015806778617527174
-0.00016200853430706522
-0.00012873110563858695
-6.480341372282608e-05
1.7952297044836957e-05
9.676725968070652e-05
0.00014799698539402173
0.00016419783882472825
0.0001514998726222826
0.00012128747027853261
8.625859799592391e-05
6.480341372282608e-05
6.918202275815218e-05
9.238865064538043e-05
0.00011515741762907608
0.00012172533118206522
0.00010771378226902174
7.093346637228261e-05
1.2260105298913043e-05
-5.210544752038043e-05
-9.501581606657609e-05
-0.0001011458687160326
-8.187998896059783e-05
-5.911122197690217e-05
-4.334822944972826e-05
-3.240170686141304e-05
-2.4958071501358695e-05
-2.7585236922554347e-05
-4.1596785835597826e-05
-6.04248046875e-05
-7.487421450407608e-05
-8.625859799592391e-05
-9.851870329483695e-05
-0.00010158372961956521
-7.837710173233695e-05
-2.364448879076087e-05
4.55375339673913e-05
0.00010552447775135868
0.0001366126019021739
0.00013048254925271738
9.895656419836956e-05
7.093346637228261e-05
7.750137992527173e-05
0.00012479035750679349
0.0001821501358695652
0.00020491890285326085
0.00016770072605298912
7.793924082880434e-05
-3.984534222146739e-05
-0.00015894350798233695
-0.00025308360224184784
-0.0003003725798233696
-0.00029599397078804347
-0.00025614862856657605
-0.0002022917374320652
-0.00014843484629755433
-9.939442510190217e-05
-5.7359778362771735e-05
-1.8390157948369565e-05
2.714737601902174e-05
8.363143257472826e-05
0.00013880190641983695
0.00017339291779891304
0.00018127441406249998
0.00017383077870244563
0.00016419783882472825
0.00014931056810461955
0.00011909816576086957
7.224704908288043e-05
2.1017323369565217e-05
-2.8460958729619564e-05
-8.319357167119565e-05
-0.00014536981997282609
-0.0001970374065896739
-0.00020885965098505434
-0.00016726286514945652
-8.713431980298913e-05
-2.1893045176630435e-06
6.305197010869565e-05
0.00010289731233016304
0.00012260105298913043
0.00012041174847146739
7.793924082880434e-05
-1.7076575237771737e-05
-0.00014449409816576087
-0.0002465156886888587
-0.00027016017747961957
-0.0002075460682744565
-9.895656419836956e-05
0.0
5.823550016983695e-05
7.793924082880434e-05
7.969068444293477e-05
8.406929347826087e-05
9.457795516304348e-05
9.501581606657609e-05
6.918202275815218e-05
2.1455184273097826e-05
-1.970374065896739e-05
-2.8898819633152172e-05
-9.195078974184782e-06
1.620085343070652e-05
3.240170686141304e-05
4.509967306385869e-05
5.911122197690217e-05
6.217624830163043e-05
4.378609035326087e-05
2.0141601562499998e-05
1.8390157948369565e-05
4.378609035326087e-05
6.961988366168479e-05
6.743057914402173e-05
3.4153150475543474e-05
-1.4887270720108696e-05
-6.348983101222826e-05
-9.808084239130435e-05
-0.0001011458687160326
-6.480341372282608e-05
-8.757218070652174e-06
2.320662788722826e-05
5.254330842391304e-06
-4.378609035326087e-05
-8.056640624999999e-05
-7.881496263586956e-05
-4.8602560292119564e-05
-1.1822244395380435e-05
1.663871433423913e-05
3.283956776494565e-05
3.5466733186141305e-05
3.065026324728261e-05
3.021240234375e-05
4.072106402853261e-05
5.341903023097826e-05
5.692191745923913e-05
4.685111667798913e-05
3.021240234375e-05
1.2260105298913043e-05
-6.130052649456522e-06
-2.364448879076087e-05
-3.1088124150815216e-05
-2.057946246603261e-05
3.940748131793478e-06
2.714737601902174e-05
3.721817680027174e-05
3.327742866847826e-05
2.2330906080163042e-05
5.6921917459239125e-06
-1.926587975543478e-05
-4.8602560292119564e-05
-6.305197010869565e-05
-4.378609035326087e-05
5.254330842391304e-06
5.692191745923913e-05
8.056640624999999e-05
7.180918817934783e-05
5.341903023097826e-05
4.0283203124999995e-05
2.1893045176630434e-05
-2.057946246603261e-05
-8.53828761888587e-05
-0.00014405623726222825
